,amplitude,tstep,vfp
0,-0.01002566237,4459,82
1,-0.0100705865771,4460,82
2,-0.0101156430319,4461,82
3,-0.0102061340585,4462,82
4,-0.0102970954031,4463,82
5,-0.0103884860873,4464,82
6,-0.0105262845755,4465,82
7,-0.0106185618788,4466,82
8,-0.0107111157849,4467,82
9,-0.0108039015904,4468,82
10,-0.0108968708664,4469,82
11,-0.0109899751842,4470,82
12,-0.0110831651837,4471,82
13,-0.0111297760159,4472,82
14,-0.0112695945427,4473,82
15,-0.0113627295941,4474,82
16,-0.0114092538133,4475,82
17,-0.0114557398483,4476,82
18,-0.0115949008614,4477,82
19,-0.0116411652416,4478,82
20,-0.0117334676906,4479,82
21,-0.0118254190311,4480,82
22,-0.0119625590742,4481,82
23,-0.0120080327615,4482,82
24,-0.0121436258778,4483,82
25,-0.0122332554311,4484,82
26,-0.0123221985996,4485,82
27,-0.0124103929847,4486,82
28,-0.0124541884288,4487,82
29,-0.0125842764974,4488,82
30,-0.0126698352396,4489,82
31,-0.0127122411504,4490,82
32,-0.0127543853596,4491,82
33,-0.0128791732714,4492,82
34,-0.0129609098658,4493,82
35,-0.0130414031446,4494,82
36,-0.0131205869839,4495,82
37,-0.0131983924657,4496,82
38,-0.0132367573678,4497,82
39,-0.013349599205,4498,82
40,-0.0134228644893,4499,82
41,-0.0134588833898,4500,82
42,-0.013529650867,4501,82
43,-0.0136324996129,4502,82
44,-0.0136987650767,4503,82
45,-0.0137631138787,4504,82
46,-0.0137945488095,4505,82
47,-0.0138558968902,4506,82
48,-0.0138857951388,4507,82
49,-0.0139722842723,4508,82
50,-0.0140271922573,4509,82
51,-0.0140798259526,4510,82
52,-0.0141301220283,4511,82
53,-0.0141780199483,4512,82
54,-0.0142010506243,4513,82
55,-0.0142452372238,4514,82
56,-0.0143067231402,4515,82
57,-0.0143444333225,4516,82
58,-0.0143794538453,4517,82
59,-0.0144117306918,4518,82
60,-0.0144268237054,4519,82
61,-0.0144548863173,4520,82
62,-0.0144800748676,4521,82
63,-0.0144915767014,4522,82
64,-0.0145123656839,4523,82
65,-0.014530162327,4524,82
66,-0.0145449228585,4525,82
67,-0.0145612796769,4526,82
68,-0.0145682683215,4527,82
69,-0.0145705742761,4528,82
70,-0.0145727843046,4529,82
71,-0.014570036903,4530,82
72,-0.0145641174167,4531,82
73,-0.014554893598,4532,82
74,-0.0145490346476,4533,82
75,-0.0145348059013,4534,82
76,-0.0145172132179,4535,82
77,-0.0145071484149,4536,82
78,-0.0144718531519,4537,82
79,-0.0144583815709,4538,82
80,-0.0144128222018,4539,82
81,-0.0143959168345,4540,82
82,-0.0143400328234,4541,82
83,-0.0142984613776,4542,82
84,-0.0142534365878,4543,82
85,-0.0142049584538,4544,82
86,-0.014153030701,4545,82
87,-0.0140976589173,4546,82
88,-0.014038852416,4547,82
89,-0.0140081653371,4548,82
90,-0.0139109864831,4549,82
91,-0.0138768954203,4550,82
92,-0.0138419587165,4551,82
93,-0.0137321036309,4552,82
94,-0.0136938141659,4553,82
95,-0.013573974371,4554,82
96,-0.0134899765253,4555,82
97,-0.0134467585012,4556,82
98,-0.0133122764528,4557,82
99,-0.0132186459377,4558,82
100,-0.0131218824536,4559,82
101,-0.0130723388866,4560,82
102,-0.0129191288725,4561,82
103,-0.0128665510565,4562,82
104,-0.0127043854445,4563,82
105,-0.012592645362,4564,82
106,-0.0125357061625,4565,82
107,-0.0124197257683,4566,82
108,-0.0123606994748,4567,82
109,-0.012179565616,4568,82
110,-0.0121178617701,4569,82
111,-0.0119288861752,4570,82
112,-0.0117997638881,4571,82
113,-0.0116682108492,4572,82
114,-0.0116015439853,4573,82
115,-0.0113980928436,4574,82
116,-0.0113291563466,4575,82
117,-0.011119117029,4576,82
118,-0.0109764970839,4577,82
119,-0.0108318915591,4578,82
120,-0.01075886935,4579,82
121,-0.0106114353985,4580,82
122,-0.0104622170329,4581,82
123,-0.0103112980723,4582,82
124,-0.0102352267131,4583,82
125,-0.0100046917796,4584,82
126,0.0100343115628,3463,82
127,0.010149134323,3464,82
128,0.010263687931,3465,82
129,0.0103779388592,3466,82
130,0.0104918554425,3467,82
131,0.0105486763641,3468,82
132,0.0107185440138,3469,82
133,0.0108312489465,3470,82
134,0.01094348263,3471,82
135,0.0110552124679,3472,82
136,0.0111664040014,3473,82
137,0.0112217878923,3474,82
138,0.0113321105018,3475,82
139,0.0114418119192,3476,82
140,0.0114964200184,3477,82
141,0.0116051286459,3478,82
142,0.0117131341249,3479,82
143,0.0118737528101,3480,82
144,0.0119798593223,3481,82
145,0.0120851518586,3482,82
146,0.0121895978227,3483,82
147,0.0122931646183,3484,82
148,0.0123958243057,3485,82
149,0.01249754522,3486,82
150,0.0125480443239,3487,82
151,0.0126980515197,3488,82
152,0.0127967782319,3489,82
153,0.0128944478929,3490,82
154,0.0129428785294,3491,82
155,0.0129910334945,3492,82
156,0.013133819215,3493,82
157,0.0132275735959,3494,82
158,0.0133201489225,3495,82
159,0.0133659858257,3496,82
160,0.013501657173,3497,82
161,0.0135462572798,3498,82
162,0.0136781446636,3499,82
163,0.0137644456699,3500,82
164,0.0138494186103,3501,82
165,0.0139330429956,3502,82
166,0.0140152964741,3503,82
167,0.0140559030697,3504,82
168,0.0141756078228,3505,82
169,0.0142147960141,3506,82
170,0.0142536237836,3507,82
171,0.0143679212779,3508,82
172,0.0144422743469,3509,82
173,0.0144788902253,3510,82
174,0.0145864747465,3511,82
175,0.0146562885493,3512,82
176,0.014724557288,3513,82
177,0.0147912669927,3514,82
178,0.0148240327835,3515,82
179,0.0149199543521,3516,82
180,0.0149511303753,3517,82
181,0.015042245388,3518,82
182,0.015100964345,3519,82
183,0.0151297133416,3520,82
184,0.0152134988457,3521,82
185,0.0152406031266,3522,82
186,0.0152672939003,3523,82
187,0.0153194312006,3524,82
188,0.0153945125639,3525,82
189,0.0154424728826,3526,82
190,0.0154658230022,3527,82
191,0.0155333476141,3528,82
192,0.0155762517825,3529,82
193,0.0156174637377,3530,82
194,0.0156569816172,3531,82
195,0.0156947989017,3532,82
196,0.0157309193164,3533,82
197,0.0157653391361,3534,82
198,0.01578191109,3535,82
199,0.0158290825784,3536,82
200,0.0158439557999,3537,82
201,0.015872431919,3538,82
202,0.0158992148936,3539,82
203,0.0159243065864,3540,82
204,0.0159362200648,3541,82
205,0.0159587841481,3542,82
206,0.0159894805402,3543,82
207,0.0160078536719,3544,82
208,0.016016414389,3545,82
209,0.0160396080464,3546,82
210,0.0160530041903,3547,82
211,0.0160590857267,3548,82
212,0.016074873507,3549,82
213,0.0160833634436,3550,82
214,0.0160902366042,3551,82
215,0.0160930696875,3552,82
216,0.0160975363106,3553,82
217,0.016099171713,3554,82
218,0.0161012541503,3555,82
219,0.0161014292389,3556,82
220,0.0160995982587,3557,82
221,0.0160962231457,3558,82
222,0.016091318801,3559,82
223,0.0160848982632,3560,82
224,0.0160811226815,3561,82
225,0.0160675607622,3562,82
226,0.0160566717386,3563,82
227,0.0160443242639,3564,82
228,0.0160376094282,3565,82
229,0.0160153135657,3566,82
230,0.0160071738064,3567,82
231,0.0159986838698,3568,82
232,0.0159711260349,3569,82
233,0.0159612521529,3570,82
234,0.015929594636,3571,82
235,0.0159183703363,3572,82
236,0.0158827211708,3573,82
237,0.0158573240042,3574,82
238,0.0158306453377,3575,82
239,0.0158027056605,3576,82
240,0.0157735198736,3577,82
241,0.0157584659755,3578,82
242,0.0157274473459,3579,82
243,0.0156952310354,3580,82
244,0.015644704923,3581,82
245,0.0156272854656,3582,82
246,0.0155915971845,3583,82
247,0.0155547903851,3584,82
248,0.0155168864876,3585,82
249,0.0154779041186,3586,82
250,0.0154378656298,3587,82
251,0.0154174556956,3588,82
252,0.0153546975926,3589,82
253,0.0153332771733,3590,82
254,0.0152675509453,3591,82
255,0.0152451628819,3592,82
256,0.015199681744,3593,82
257,0.0151532813907,3594,82
258,0.0150819998235,3595,82
259,0.0150578022003,3596,82
260,0.0150087680668,3597,82
261,0.0149589003995,3598,82
262,0.0149082187563,3599,82
263,0.0148567464203,3600,82
264,0.0148045057431,3601,82
265,0.0147515172139,3602,82
266,0.0147247500718,3603,82
267,0.014670683071,3604,82
268,0.0145882917568,3605,82
269,0.0145325353369,3606,82
270,0.0145044177771,3607,82
271,0.0144477151334,3608,82
272,0.0143615370616,3609,82
273,0.0143033685163,3610,82
274,0.0142446523532,3611,82
275,0.0142150959,3612,82
276,0.01415560022,3613,82
277,0.0141256675124,3614,82
278,0.0140351587906,3615,82
279,0.0140047622845,3616,82
280,0.0139129301533,3617,82
281,0.0138512011617,3618,82
282,0.0137890921906,3619,82
283,0.0137266246602,3620,82
284,0.013663822785,3621,82
285,0.0136323031038,3622,82
286,0.0135373007506,3623,82
287,0.0134736271575,3624,82
288,0.0134097058326,3625,82
289,0.0133455609903,3626,82
290,0.0133134108037,3627,82
291,0.0132489688694,3628,82
292,0.0131843583658,3629,82
293,0.0131519958377,3630,82
294,0.0130871701986,3631,82
295,0.0130222300068,3632,82
296,0.0129246488214,3633,82
297,0.0128595139831,3634,82
298,0.0127943381667,3635,82
299,0.0127291427925,3636,82
300,0.012663949281,3637,82
301,0.0125987762585,3638,82
302,0.0125336460769,3639,82
303,0.0124685792252,3640,82
304,0.0124035961926,3641,82
305,0.0123711414635,3642,82
306,0.012306320481,3643,82
307,0.0122416317463,3644,82
308,0.0121770957485,3645,82
309,0.012112731114,3646,82
310,0.0120485564694,3647,82
311,0.0120165459812,3648,82
312,0.0119208525866,3649,82
313,0.0118573587388,3650,82
314,0.0117941284552,3651,82
315,0.0117311794311,3652,82
316,0.0116998152807,3653,82
317,0.0116061903536,3654,82
318,0.0115441828966,3655,82
319,0.0114825218916,3656,82
320,0.0114212222397,3657,82
321,0.0113907130435,3658,82
322,0.0113299842924,3659,82
323,0.0112696550786,3660,82
324,0.0112097384408,3661,82
325,0.0111502474174,3662,82
326,0.0111206658185,3663,82
327,0.011061838828,3664,82
328,0.011003469117,3665,82
329,0.0109455687925,3666,82
330,0.0108596207574,3667,82
331,0.0108029404655,3668,82
332,0.0107467649505,3669,82
333,0.0106911044568,3670,82
334,0.0106359673664,3671,82
335,0.0105813620612,3672,82
336,0.010554259643,3673,82
337,0.0105004627258,3674,82
338,0.0104472152889,3675,82
339,0.010394519195,3676,82
340,0.0103683797643,3677,82
341,0.010316522792,3678,82
342,0.0102397957817,3679,82
343,0.0101893544197,3680,82
344,0.0101394830272,3681,82
345,0.010090184398,3682,82
346,0.0100414566696,3683,82
347,0.0100173074752,3684,82
0,0.0136253228411,3584,83
1,0.013626396656,3585,83
2,0.0136280469596,3586,83
3,0.0136290425435,3587,83
4,0.0136293331161,3588,83
5,0.0136287361383,3589,83
6,0.0136275198311,3590,83
7,0.0136266807094,3591,83
8,0.0136232636869,3592,83
9,0.0136218285188,3593,83
10,0.013616649434,3594,83
11,0.0136124854907,3595,83
12,0.0136077683419,3596,83
13,0.0136052034795,3597,83
14,0.0135996732861,3598,83
15,0.0135936150327,3599,83
16,0.013587044552,3600,83
17,0.0135799692944,3601,83
18,0.013576246798,3602,83
19,0.0135684404522,3603,83
20,0.0135558480397,3604,83
21,0.0135468831286,3605,83
22,0.0135374749079,3606,83
23,0.0135276354849,3607,83
24,0.0135173788294,3608,83
25,0.013506712392,3609,83
26,0.0134956501424,3610,83
27,0.013484204188,3611,83
28,0.0134783387184,3612,83
29,0.0134663339704,3613,83
30,0.0134539697319,3614,83
31,0.0134412553161,3615,83
32,0.013428199105,3616,83
33,0.0134148122743,3617,83
34,0.0134011022747,3618,83
35,0.0133870784193,3619,83
36,0.0133727462962,3620,83
37,0.0133581124246,3621,83
38,0.0133431851864,3622,83
39,0.0133279683068,3623,83
40,0.0133124692366,3624,83
41,0.0132966907695,3625,83
42,0.013280636631,3626,83
43,0.0132725061849,3627,83
44,0.0132643086836,3628,83
45,0.0132393110543,3629,83
46,0.0132223088294,3630,83
47,0.0132050383836,3631,83
48,0.0131874978542,3632,83
49,0.01316968631,3633,83
50,0.0131516028196,3634,83
51,0.0131332436576,3635,83
52,0.013114602305,3636,83
53,0.0130956778303,3637,83
54,0.0130764609203,3638,83
55,0.0130569506437,3639,83
56,0.0130371348932,3640,83
57,0.0130271082744,3641,83
58,0.0129965534434,3642,83
59,0.0129862027243,3643,83
60,0.0129757700488,3644,83
61,0.0129546448588,3645,83
62,0.0129222869873,3646,83
63,0.0129002518952,3647,83
64,0.0128890890628,3648,83
65,0.0128550045192,3649,83
66,0.0128434365615,3650,83
67,0.0128199793398,3651,83
68,0.0127839613706,3652,83
69,0.0127593679354,3653,83
70,0.0127342874184,3654,83
71,0.0127087021247,3655,83
72,0.012682591565,3656,83
73,0.0126693332568,3657,83
74,0.0126423984766,3658,83
75,0.0126287154853,3659,83
76,0.0125867743045,3660,83
77,0.0125724868849,3661,83
78,0.0125286690891,3662,83
79,0.0124986292794,3663,83
80,0.0124679012224,3664,83
81,0.012452271767,3665,83
82,0.0124204643071,3666,83
83,0.0123879089952,3667,83
84,0.0123545806855,3668,83
85,0.0123030832037,3669,83
86,0.0122677143663,3670,83
87,0.0122314877808,3671,83
88,0.0122130438685,3672,83
89,0.0121754845604,3673,83
90,0.0121563598514,3674,83
91,0.0121174091473,3675,83
92,0.0120775038376,3676,83
93,0.012036616914,3677,83
94,0.0119947250932,3678,83
95,0.0119299553335,3679,83
96,0.0118854530156,3680,83
97,0.0118627976626,3681,83
98,0.0117931766436,3682,83
99,0.011745357886,3683,83
100,0.0117210196331,3684,83
101,0.0116462614387,3685,83
102,0.0115949418396,3686,83
103,0.0115424180403,3687,83
104,0.0115157002583,3688,83
105,0.0114613380283,3689,83
106,0.0114057296887,3690,83
107,0.0113774547353,3691,83
108,0.011290715076,3692,83
109,0.0112312817946,3693,83
110,0.0112010771409,3694,83
111,0.011108500883,3695,83
112,0.0110451327637,3696,83
113,0.0109804365784,3697,83
114,0.0109144048765,3698,83
115,0.0108470274135,3699,83
116,0.0107783051208,3700,83
117,0.0107434373349,3701,83
118,0.0106726884842,3702,83
119,0.0106005873531,3703,83
120,0.010527134873,3704,83
121,0.0104899015278,3705,83
122,0.010414426215,3706,83
123,0.0102986907586,3707,83
124,0.010259443894,3708,83
125,0.0101397093385,3709,83
126,0.0100582363084,3710,83
127,0.0100170085207,3711,83
128,-0.0100141176954,4407,83
129,-0.0100287999958,4408,83
130,-0.0100360512733,4409,83
131,-0.0100503740832,4410,83
132,-0.0100644705817,4411,83
133,-0.0100852074102,4412,83
134,-0.0100987711921,4413,83
135,-0.0101054795086,4414,83
136,-0.0101187443361,4415,83
137,-0.010131817311,4416,83
138,-0.0101382825524,4417,83
139,-0.0101510705426,4418,83
140,-0.0101636713371,4419,83
141,-0.0101822195575,4420,83
142,-0.0101883076131,4421,83
143,-0.0102062840015,4422,83
144,-0.0102121764794,4423,83
145,-0.010223813355,4424,83
146,-0.0102352425456,4425,83
147,-0.0102464556694,4426,83
148,-0.0102574443445,4427,83
149,-0.0102734798566,4428,83
150,-0.0102786999196,4429,83
151,-0.0102889435366,4430,83
152,-0.0102939633653,4431,83
153,-0.0103085897863,4432,83
154,-0.0103179579601,4433,83
155,-0.0103270011023,4434,83
156,-0.0103356977925,4435,83
157,-0.0103399101645,4436,83
158,-0.0103519698605,4437,83
159,-0.0103595023975,4438,83
160,-0.0103631084785,4439,83
161,-0.0103699825704,4440,83
162,-0.0103794056922,4441,83
163,-0.0103850606829,4442,83
164,-0.0103901792318,4443,83
165,-0.0103925317526,4444,83
166,-0.0103968027979,4445,83
167,-0.0103987138718,4446,83
168,-0.0104020703584,4447,83
169,-0.0104047842324,4448,83
170,-0.0104068266228,4449,83
171,-0.01040857099,4450,83
172,-0.0104088112712,4451,83
173,-0.01040828228,4452,83
174,-0.0104077206925,4453,83
175,-0.0104048019275,4454,83
176,-0.0104017956182,4455,83
177,-0.0103979073465,4456,83
178,-0.0103931156918,4457,83
179,-0.0103873889893,4458,83
180,-0.0103807095438,4459,83
181,-0.01037700288,4460,83
182,-0.0103688417003,4461,83
183,-0.0103643815964,4462,83
184,-0.0103546902537,4463,83
185,-0.0103381844237,4464,83
186,-0.0103321494535,4465,83
187,-0.0103124063462,4466,83
188,-0.0103052742779,4467,83
189,-0.0102821998298,4468,83
190,-0.0102654006332,4469,83
191,-0.0102474549785,4470,83
192,-0.0102380504832,4471,83
193,-0.0102080916986,4472,83
194,-0.0101866591722,4473,83
195,-0.010164055042,4474,83
196,-0.0101523138583,4475,83
197,-0.010127951391,4476,83
198,-0.0101153310388,4477,83
199,-0.0100757181644,4478,83
200,-0.0100478548557,4479,83
201,-0.0100334919989,4480,83
202,-0.0100039066747,4481,83
203,0.010038937442,3472,83
204,0.0100921522826,3473,83
205,0.0101450476795,3474,83
206,0.0101976282895,3475,83
207,0.0102238003165,3476,83
208,0.0102759180591,3477,83
209,0.0103277303278,3478,83
210,0.0103535233065,3479,83
211,0.0104304589331,3480,83
212,0.0104813817888,3481,83
213,0.0105320150033,3482,83
214,0.0105823623016,3483,83
215,0.0106324283406,3484,83
216,0.0106822149828,3485,83
217,0.0107317250222,3486,83
218,0.0107809612527,3487,83
219,0.0108054773882,3488,83
220,0.0108786243945,3489,83
221,0.0109270568937,3490,83
222,0.0109511734918,3491,83
223,0.0109992073849,3492,83
224,0.0110231265426,3493,83
225,0.0110944900662,3494,83
226,0.0111417388543,3495,83
227,0.0111652649939,3496,83
228,0.0112354541197,3497,83
229,0.011281920597,3498,83
230,0.0113281272352,3499,83
231,0.0113740712404,3500,83
232,0.0114197498187,3501,83
233,0.011442489922,3502,83
234,0.0115103088319,3503,83
235,0.0115327807143,3504,83
236,0.0115775205195,3505,83
237,0.0116219855845,3506,83
238,0.0116661721841,3507,83
239,0.0117100765929,3508,83
240,0.011753693223,3509,83
241,0.0117970202118,3510,83
242,0.0118400501087,3511,83
243,0.0118827801198,3512,83
244,0.0119040291756,3513,83
245,0.0119673116133,3514,83
246,0.0120091028512,3515,83
247,0.0120505653322,3516,83
248,0.012091695331,3517,83
249,0.0121324853972,3518,83
250,0.0121729271486,3519,83
251,0.0122130122036,3520,83
252,0.0122527331114,3521,83
253,0.0122724538669,3522,83
254,0.0123116094619,3523,83
255,0.0123503794894,3524,83
256,0.0123887527734,3525,83
257,0.0124077880755,3526,83
258,0.0124455485493,3527,83
259,0.0125013999641,3528,83
260,0.0125380922109,3529,83
261,0.0125743374228,3530,83
262,0.0125922905281,3531,83
263,0.012645454146,3532,83
264,0.0126629397273,3533,83
265,0.0127146635205,3534,83
266,0.0127485273406,3535,83
267,0.0127652697265,3536,83
268,0.0127983670682,3537,83
269,0.0128309410065,3538,83
270,0.0128629785031,3539,83
271,0.0128787942231,3540,83
272,0.0129254087806,3541,83
273,0.012940665707,3542,83
274,0.0129855750129,3543,83
275,0.0130147822201,3544,83
276,0.0130433952436,3545,83
277,0.0130714038387,3546,83
278,0.0130987968296,3547,83
279,0.0131122590974,3548,83
280,0.0131517015398,3549,83
281,0.0131771937013,3550,83
282,0.0132020367309,3551,83
283,0.0132142109796,3552,83
284,0.0132262213156,3553,83
285,0.0132612483576,3554,83
286,0.0132837546989,3555,83
287,0.0133055774495,3556,83
288,0.0133162308484,3557,83
289,0.0133471507579,3558,83
290,0.0133571065962,3559,83
291,0.0133764930069,3560,83
292,0.0133951706812,3561,83
293,0.013421850279,3562,83
294,0.0134387416765,3563,83
295,0.013454911299,3564,83
296,0.0134627260268,3565,83
297,0.0134778125212,3566,83
298,0.0134921725839,3567,83
299,0.0134990792722,3568,83
300,0.0135123487562,3569,83
301,0.0135308913887,3570,83
302,0.0135423447937,3571,83
303,0.0135477976874,3572,83
304,0.0135630760342,3573,83
305,0.0135723566636,3574,83
306,0.0135809220374,3575,83
307,0.013588771224,3576,83
308,0.0135959088802,3577,83
309,0.0136023405939,3578,83
310,0.0136080700904,3579,83
311,0.013610673137,3580,83
312,0.0136174429208,3581,83
313,0.0136193586513,3582,83
314,0.013622677885,3583,83
0,-0.0100148376077,4274,84
1,-0.0100669404492,4275,84
2,-0.0101184500381,4276,84
3,-0.0101439803839,4277,84
4,-0.0101945903152,4278,84
5,-0.0102196680382,4279,84
6,-0.0102939894423,4280,84
7,-0.0103427702561,4281,84
8,-0.0103909326717,4282,84
9,-0.0104147801176,4283,84
10,-0.0104620046914,4284,84
11,-0.0105316527188,4285,84
12,-0.010577284731,4286,84
13,-0.0105998590589,4287,84
14,-0.0106666032225,4288,84
15,-0.0107102785259,4289,84
16,-0.0107318665832,4290,84
17,-0.0107745416462,4291,84
18,-0.0108372876421,4292,84
19,-0.0108578614891,4293,84
20,-0.0108984913677,4294,84
21,-0.010918546468,4295,84
22,-0.0109776556492,4296,84
23,-0.0110161742195,4297,84
24,-0.0110539738089,4298,84
25,-0.0110726002604,4299,84
26,-0.011109303683,4300,84
27,-0.0111452667043,4301,84
28,-0.011197803542,4302,84
29,-0.0112318778411,4303,84
30,-0.0112486258149,4304,84
31,-0.011297701858,4305,84
32,-0.0113294329494,4306,84
33,-0.0113603649661,4307,84
34,-0.0113755278289,4308,84
35,-0.011405242607,4309,84
36,-0.0114341331646,4310,84
37,-0.0114621892571,4311,84
38,-0.0114894015715,4312,84
39,-0.0115157607943,4313,84
40,-0.0115412566811,4314,84
41,-0.0115658771247,4315,84
42,-0.0115778576583,4316,84
43,-0.0116011500359,4317,84
44,-0.0116344010457,4318,84
45,-0.0116554284468,4319,84
46,-0.0116755347699,4320,84
47,-0.0116947097704,4321,84
48,-0.0117129441351,4322,84
49,-0.0117217050865,4323,84
50,-0.0117385108024,4324,84
51,-0.0117543535307,4325,84
52,-0.0117619112134,4326,84
53,-0.0117831155658,4327,84
54,-0.01179601904,4328,84
