,amplitude,tstep,vfp
0,-0.0121232941747,5120,82
1,-0.0120965689421,5121,82
2,-0.0120165981352,5122,82
3,-0.0119634754956,5123,82
4,-0.0119105242193,5124,82
5,-0.011884117499,5125,82
6,-0.0118314512074,5126,82
7,-0.0117789935321,5127,82
8,-0.0117267584428,5128,82
9,-0.0116747589782,5129,82
10,-0.011623006314,5130,82
11,-0.0115972263739,5131,82
12,-0.011520289816,5132,82
13,-0.0114693474025,5133,82
14,-0.0114186964929,5134,82
15,-0.0113683445379,5135,82
16,-0.0113183008507,5136,82
17,-0.0112685738131,5137,82
18,-0.0112438313663,5138,82
19,-0.0111945914105,5139,82
20,-0.0111456820741,5140,82
21,-0.0110971108079,5141,82
22,-0.011072954163,5142,82
23,-0.0110010020435,5143,82
24,-0.0109534710646,5144,82
25,-0.0109062930569,5145,82
26,-0.0108594708145,5146,82
27,-0.0108130061999,5147,82
28,-0.0107899084687,5148,82
29,-0.0107211554423,5149,82
30,-0.0106757683679,5150,82
31,-0.0106307417154,5151,82
32,-0.0105860717595,5152,82
33,-0.0105638708919,5153,82
34,-0.0104978019372,5154,82
35,-0.0104759549722,5155,82
36,-0.0104325255379,5156,82
37,-0.0103894453496,5157,82
38,-0.0103680342436,5158,82
39,-0.0103043140844,5159,82
40,-0.0102832438424,5160,82
41,-0.010241352953,5161,82
42,-0.0101791350171,5162,82
43,-0.0101380599663,5163,82
44,-0.0100973024964,5164,82
45,-0.0100568560883,5165,82
46,-0.0100167151541,5166,82
47,-0.0100266002119,4937,82
48,-0.0100510129705,4938,82
49,-0.0101252365857,4939,82
50,-0.0101503012702,4940,82
51,-0.0102264517918,4941,82
52,-0.0102780051529,4942,82
53,-0.010330173187,4943,82
54,-0.0103564849123,4944,82
55,-0.0104095553979,4945,82
56,-0.0104363113642,4946,82
57,-0.0105174435303,4947,82
58,-0.0105447703972,4948,82
59,-0.0106275724247,4949,82
60,-0.0106834387407,4950,82
61,-0.0107398210093,4951,82
62,-0.0107967015356,4952,82
63,-0.0108540626243,4953,82
64,-0.0109118865803,4954,82
65,-0.0109409661964,4955,82
66,-0.0110288504511,4956,82
67,-0.0110879521817,4957,82
68,-0.0111474385485,4958,82
69,-0.0111773200333,4959,82
70,-0.0112072899938,4960,82
71,-0.0112674841657,4961,82
72,-0.0113583691418,4962,82
73,-0.0114193242043,4963,82
74,-0.0114805409685,4964,82
75,-0.0115419961512,4965,82
76,-0.0116036664695,4966,82
77,-0.0116655258462,4967,82
78,-0.011727550067,4968,82
79,-0.0117897111923,4969,82
80,-0.0118208350614,4970,82
81,-0.0119143426418,4971,82
82,-0.0119767580181,4972,82
83,-0.0120392041281,4973,82
84,-0.01207042858,4974,82
85,-0.0121328663081,4975,82
86,-0.0121952621266,4976,82
87,-0.0122575890273,4977,82
88,-0.0123198181391,4978,82
89,-0.0123508861288,4979,82
90,-0.0124438628554,4980,82
91,-0.0125056188554,4981,82
92,-0.0125671587884,4982,82
93,-0.0125978374854,4983,82
94,-0.0126894665882,4984,82
95,-0.0127501739189,4985,82
96,-0.0128105431795,4986,82
97,-0.0128705436364,4987,82
98,-0.0129301454872,4988,82
99,-0.0129597866908,4989,82
100,-0.0130187328905,4990,82
101,-0.0130772031844,4991,82
102,-0.0131351687014,4992,82
103,-0.0131639521569,4993,82
104,-0.0132211018354,4994,82
105,-0.0132776694372,4995,82
106,-0.0133613664657,4996,82
107,-0.0134163498878,4997,82
108,-0.0134706487879,4998,82
109,-0.0135242333636,4999,82
110,-0.0135770738125,5000,82
111,-0.0136032057926,5001,82
112,-0.0136804077774,5002,82
113,-0.0137057323009,5003,82
114,-0.0137557452545,5004,82
115,-0.0138048874214,5005,82
116,-0.0138291241601,5006,82
117,-0.0139004550874,5007,82
118,-0.0139468275011,5008,82
119,-0.0139696486294,5009,82
120,-0.0140366191044,5010,82
121,-0.0140799889341,5011,82
122,-0.0141012826934,5012,82
123,-0.014163560234,5013,82
124,-0.0142037132755,5014,82
125,-0.0142427487299,5015,82
126,-0.0142618408427,5016,82
127,-0.014317382127,5017,82
128,-0.0143529381603,5018,82
129,-0.0143702672794,5019,82
130,-0.0143872937188,5020,82
131,-0.0144365373999,5021,82
132,-0.0144523316994,5022,82
133,-0.0144829787314,5023,82
134,-0.0145123554394,5024,82
135,-0.0145404450595,5025,82
136,-0.0145801370963,5026,82
137,-0.0145927090198,5027,82
138,-0.0146168544888,5028,82
139,-0.0146505562589,5029,82
140,-0.0146713284776,5030,82
141,-0.0146907335147,5031,82
142,-0.0147087611258,5032,82
143,-0.0147254029289,5033,82
144,-0.0147332027555,5034,82
145,-0.014740653336,5035,82
146,-0.0147609012201,5036,82
147,-0.0147726424038,5037,82
148,-0.0147779835388,5038,82
149,-0.0147918835282,5039,82
150,-0.0147958090529,5040,82
151,-0.0148054566234,5041,82
152,-0.0148101132363,5042,82
153,-0.0148133505136,5043,82
154,-0.014814437367,5044,82
155,-0.0148155735806,5045,82
156,-0.014815245755,5046,82
157,-0.0148135321215,5047,82
158,-0.0148104112595,5048,82
159,-0.0148058906198,5049,82
160,-0.0147999748588,5050,82
161,-0.0147926732898,5051,82
162,-0.0147885046899,5052,82
163,-0.0147739415988,5053,82
164,-0.0147625301033,5054,82
165,-0.0147497700527,5055,82
166,-0.0147356716916,5056,82
167,-0.0147202489898,5057,82
168,-0.0147035140544,5058,82
169,-0.0146946590394,5059,82
170,-0.0146759841591,5060,82
171,-0.0146560342982,5061,82
172,-0.0146348243579,5062,82
173,-0.0146006857976,5063,82
174,-0.0145764024928,5064,82
175,-0.0145638110116,5065,82
176,-0.0145377395675,5066,82
177,-0.0145242642611,5067,82
178,-0.0144821107388,5068,82
179,-0.0144674926996,5069,82
180,-0.0144219743088,5070,82
181,-0.0144062554464,5071,82
182,-0.0143575007096,5072,82
183,-0.0143407257274,5073,82
184,-0.014288874343,5074,82
185,-0.0142710907385,5075,82
186,-0.0142162851989,5076,82
187,-0.0141975414008,5077,82
188,-0.014139928855,5078,82
189,-0.0141004016623,5079,82
190,-0.014080312103,5080,82
191,-0.0140394968912,5081,82
192,-0.0139978555962,5082,82
193,-0.0139554142952,5083,82
194,-0.0139339035377,5084,82
195,-0.0138903139159,5085,82
196,-0.0138459950686,5086,82
197,-0.01380097121,5087,82
198,-0.0137321762741,5088,82
199,-0.0136855123565,5089,82
200,-0.0136382412165,5090,82
201,-0.0135903898627,5091,82
202,-0.0135419871658,5092,82
203,-0.0134930601344,5093,82
204,-0.0134684089571,5094,82
205,-0.0134187471122,5095,82
206,-0.013393743895,5096,82
207,-0.0133180851117,5097,82
208,-0.0132671380416,5098,82
209,-0.0132158193737,5099,82
210,-0.0131641523913,5100,82
211,-0.0131381973624,5101,82
212,-0.0130598843098,5102,82
213,-0.0130336424336,5103,82
214,-0.0129809705541,5104,82
215,-0.0129015408456,5105,82
216,-0.0128483437002,5106,82
217,-0.012794979848,5107,82
218,-0.0127414744347,5108,82
219,-0.0127146756276,5109,82
220,-0.0126610007137,5110,82
221,-0.0126341311261,5111,82
222,-0.0125534264371,5112,82
223,-0.0124995708466,5113,82
224,-0.0124457003549,5114,82
225,-0.0123918354511,5115,82
226,-0.0123649109155,5116,82
227,-0.0122842025012,5117,82
228,-0.0122304745018,5118,82
229,-0.0121768321842,5119,82
0,-0.0117429634556,5120,83
1,-0.011736898683,5121,83
2,-0.0117243956774,5122,83
3,-0.0117047075182,5123,83
4,-0.0116978976876,5124,83
5,-0.0116839082912,5125,83
6,-0.0116694271564,5126,83
7,-0.0116544626653,5127,83
8,-0.0116390157491,5128,83
9,-0.0116230910644,5129,83
10,-0.0116066969931,5130,83
11,-0.0115898419172,5131,83
12,-0.0115725286305,5132,83
13,-0.011554768309,5133,83
14,-0.0115365693346,5134,83
15,-0.0115273073316,5135,83
16,-0.0114988936111,5136,83
17,-0.0114892153069,5137,83
18,-0.011469559744,5138,83
19,-0.0114393467084,5139,83
20,-0.0114290853962,5140,83
21,-0.0114082917571,5141,83
22,-0.0113871460781,5142,83
23,-0.0113656613976,5143,83
24,-0.0113438507542,5144,83
25,-0.0113328285515,5145,83
26,-0.0112993149087,5146,83
27,-0.0112766195089,5147,83
28,-0.0112536596134,5148,83
29,-0.0112304538488,5149,83
30,-0.0112187629566,5150,83
31,-0.0111833661795,5151,83
32,-0.0111595178023,5152,83
33,-0.0111354906112,5153,83
34,-0.0111234150827,5154,83
35,-0.0110991513357,5155,83
36,-0.0110869687051,5156,83
37,-0.0110502392054,5157,83
38,-0.0110256271437,5158,83
39,-0.0110009321943,5159,83
40,-0.0109885614365,5160,83
41,-0.0109513765201,5161,83
42,-0.0109265483916,5162,83
43,-0.0109141310677,5163,83
44,-0.0108768874779,5164,83
45,-0.0108644831926,5165,83
46,-0.0108273345977,5166,83
47,-0.0108149806038,5167,83
48,-0.0107903257012,5168,83
49,-0.0107535151765,5169,83
50,-0.0107291117311,5170,83
51,-0.0107169570401,5171,83
52,-0.0106927519664,5172,83
53,-0.0106686986983,5173,83
54,-0.0106448130682,5174,83
55,-0.0106329377741,5175,83
56,-0.0105975968763,5176,83
57,-0.0105859199539,5177,83
58,-0.0105627300218,5178,83
59,-0.010528376326,5179,83
60,-0.0105057805777,5180,83
61,-0.0104834428057,5181,83
62,-0.0104723721743,5182,83
63,-0.0104395784438,5183,83
64,-0.0104287890717,5184,83
65,-0.0103968633339,5185,83
66,-0.0103863719851,5186,83
67,-0.0103759570047,5187,83
68,-0.010355360806,5188,83
69,-0.0103250592947,5189,83
70,-0.0103151211515,5190,83
71,-0.0102857956663,5191,83
72,-0.0102666579187,5192,83
73,-0.0102478526533,5193,83
74,-0.010229382664,5194,83
75,-0.0102112470195,5195,83
76,-0.0101934475824,5196,83
77,-0.0101846717298,5197,83
78,-0.0101588424295,5198,83
79,-0.0101503971964,5199,83
80,-0.0101255457848,5200,83
81,-0.0101174227893,5201,83
82,-0.010101412423,5202,83
83,-0.0100935241207,5203,83
84,-0.0100703146309,5204,83
85,-0.0100627252832,5205,83
86,-0.0100477654487,5206,83
87,-0.0100330831483,5207,83
88,-0.0100115602836,5208,83
89,-0.0100045129657,5209,83
90,-0.0100132841617,4899,83
91,-0.0100733069703,4900,83
92,-0.0101030990481,4901,83
93,-0.0101915737614,4902,83
94,-0.0102207604796,4903,83
95,-0.0103073809296,4904,83
96,-0.010364331305,4905,83
97,-0.010420630686,4906,83
98,-0.0104485331103,4907,83
99,-0.0105312298983,4908,83
100,-0.0105584533885,4909,83
101,-0.0106390835717,4910,83
102,-0.0106919556856,4911,83
103,-0.010718123056,4912,83
104,-0.0107699148357,4913,83
105,-0.0108209745958,4914,83
106,-0.0108712902293,4915,83
107,-0.0109208552167,4916,83
108,-0.0109696583822,4917,83
109,-0.010993771255,4918,83
110,-0.0110649457201,4919,83
111,-0.0111114131287,4920,83
112,-0.0111570861191,4921,83
113,-0.0112019572407,4922,83
114,-0.0112460171804,4923,83
115,-0.0112677430734,4924,83
116,-0.0113316839561,4925,83
117,-0.0113732749596,4926,83
118,-0.0114140305668,4927,83
119,-0.0114539442584,4928,83
120,-0.0114735839888,4929,83
121,-0.0115122273564,4930,83
122,-0.0115312291309,4931,83
123,-0.011586945504,4932,83
124,-0.0116230146959,4933,83
125,-0.0116582168266,4934,83
126,-0.0116754919291,4935,83
127,-0.0117093902081,4936,83
128,-0.0117585975677,4937,83
129,-0.0117903072387,4938,83
130,-0.0118211396039,4939,83
131,-0.0118510900065,4940,83
132,-0.011865735054,4941,83
133,-0.0119083486497,4942,83
134,-0.011935655959,4943,83
135,-0.0119489785284,4944,83
136,-0.0119749633595,4945,83
137,-0.0119876274839,4946,83
138,-0.0120242955163,4947,83
139,-0.0120476456359,4948,83
140,-0.0120701212436,4949,83
141,-0.0120810316876,4950,83
142,-0.0121124591678,4951,83
143,-0.0121225025505,4952,83
144,-0.0121513390914,4953,83
145,-0.012169492431,4954,83
146,-0.0121867945418,4955,83
147,-0.0121951280162,4956,83
148,-0.0122111635283,4957,83
149,-0.0122336493805,4958,83
150,-0.012240730226,4959,83
151,-0.0122476052493,4960,83
152,-0.0122670046985,4961,83
153,-0.0122789265588,4962,83
154,-0.0122900502756,4963,83
155,-0.0122953131795,4964,83
156,-0.0123052559793,4965,83
157,-0.0123187173158,4966,83
158,-0.0123267378658,4967,83
159,-0.0123340096325,4968,83
160,-0.0123405428603,4969,83
161,-0.0123463487253,4970,83
162,-0.0123489825055,4971,83
163,-0.0123537210748,4972,83
164,-0.012359527871,4973,83
165,-0.0123611222953,4974,83
166,-0.0123638128862,4975,83
167,-0.012365847826,4976,83
168,-0.012366624549,4977,83
169,-0.012368010357,4978,83
170,-0.0123681677505,4979,83
171,-0.0123680224642,4980,83
172,-0.0123667102307,4981,83
173,-0.0123651269823,4982,83
174,-0.0123629970476,4983,83
175,-0.0123617323115,4984,83
176,-0.012357163243,4985,83
177,-0.0123534938321,4986,83
178,-0.0123493457213,4987,83
179,-0.0123447375372,4988,83
180,-0.0123422658071,4989,83
181,-0.0123370001093,4990,83
182,-0.0123342098668,4991,83
183,-0.0123283285648,4992,83
184,-0.012318787165,4993,83
185,-0.0123154232278,4994,83
186,-0.0123048182577,4995,83
187,-0.0122973416001,4996,83
188,-0.0122895641252,4997,83
189,-0.0122815044597,4998,83
190,-0.0122773740441,4999,83
191,-0.012268926017,5000,83
192,-0.0122558204457,5001,83
193,-0.0122468238696,5002,83
194,-0.0122376391664,5003,83
195,-0.0122329844162,5004,83
196,-0.0122282886878,5005,83
197,-0.012213989161,5006,83
198,-0.0122091602534,5007,83
199,-0.0121945170686,5008,83
200,-0.0121846459806,5009,83
201,-0.0121796866879,5010,83
202,-0.01216473151,5011,83
203,-0.0121547235176,5012,83
204,-0.012144703418,5013,83
205,-0.012134690769,5014,83
206,-0.0121247004718,5015,83
207,-0.0121147511527,5016,83
208,-0.0121097965166,5017,83
209,-0.0120950359851,5018,83
210,-0.0120901577175,5019,83
211,-0.0120853027329,5020,83
212,-0.0120708979666,5021,83
213,-0.0120661575347,5022,83
214,-0.0120567735285,5023,83
215,-0.0120475357398,5024,83
216,-0.0120384553447,5025,83
217,-0.0120251560584,5026,83
218,-0.0120208151639,5027,83
219,-0.0120080905035,5028,83
220,-0.0119998678565,5029,83
221,-0.0119918640703,5030,83
222,-0.0119840903208,5031,83
223,-0.011980291456,5032,83
224,-0.0119692618027,5033,83
225,-0.0119657116011,5034,83
226,-0.0119622256607,5035,83
227,-0.0119521599263,5036,83
228,-0.0119457840919,5037,83
229,-0.0119396829978,5038,83
230,-0.0119367353618,5039,83
231,-0.0119283180684,5040,83
232,-0.0119230644777,5041,83
233,-0.0119180958718,5042,83
234,-0.0119134169072,5043,83
235,-0.0119090285152,5044,83
236,-0.0119049297646,5045,83
237,-0.0119011197239,5046,83
238,-0.0118975983933,5047,83
239,-0.0118959443644,5048,83
240,-0.0118928505108,5049,83
241,-0.0118900379166,5050,83
242,-0.0118887359276,5051,83
243,-0.0118863414973,5052,83
244,-0.011883254163,5053,83
245,-0.0118823572993,5054,83
246,-0.0118800532073,5055,83
247,-0.0118788303807,5056,83
248,-0.0118783097714,5057,83
249,-0.0118770990521,5058,83
250,-0.0118765728548,5059,83
251,-0.0118763921782,5060,83
252,-0.0118761574849,5061,83
253,-0.0118761770427,5062,83
254,-0.0118765151128,5063,83
255,-0.011876957491,5064,83
256,-0.0118772378191,5065,83
257,-0.0118779120967,5066,83
258,-0.0118787251413,5067,83
259,-0.0118796639144,5068,83
260,-0.0118807144463,5069,83
261,-0.0118812769651,5070,83
262,-0.0118830958381,5071,83
263,-0.0118843978271,5072,83
264,-0.0118850693107,5073,83
265,-0.0118871452287,5074,83
266,-0.011888558045,5075,83
267,-0.0118899792433,5076,83
268,-0.0118906861171,5077,83
269,-0.0118927722797,5078,83
270,-0.0118941133842,5079,83
271,-0.011894762516,5080,83
272,-0.0118960058317,5081,83
273,-0.0118965981528,5082,83
274,-0.0118977092206,5083,83
275,-0.0118991620839,5084,83
276,-0.0118999667466,5085,83
277,-0.0119003131986,5086,83
278,-0.0119011020288,5087,83
279,-0.0119012761861,5088,83
280,-0.0119014987722,5089,83
281,-0.0119013777003,5090,83
282,-0.011901024729,5091,83
283,-0.011900421232,5092,83
284,-0.011899552308,5093,83
285,-0.011898403056,5094,83
286,-0.0118977185339,5095,83
287,-0.0118961203843,5096,83
288,-0.0118942065164,5097,83
289,-0.0118931261823,5098,83
290,-0.011889372021,5099,83
291,-0.0118864262477,5100,83
292,-0.0118848141283,5101,83
293,-0.0118794087321,5102,83
294,-0.011875314638,5103,83
295,-0.0118731167167,5104,83
296,-0.0118659008294,5105,83
297,-0.0118605587631,5106,83
298,-0.0118547827005,5107,83
299,-0.0118485596031,5108,83
300,-0.0118418866768,5109,83
301,-0.0118383774534,5110,83
302,-0.0118347518146,5111,83
303,-0.0118271494284,5112,83
304,-0.0118190748617,5113,83
305,-0.01180606056,5114,83
306,-0.0117967789993,5115,83
307,-0.0117870047688,5116,83
308,-0.0117819327861,5117,83
309,-0.0117659773678,5118,83
310,-0.0117547195405,5119,83
0,-0.0113946115598,5120,84
1,-0.0113530131057,5121,84
2,-0.011332096532,5122,84
3,-0.0112900296226,5123,84
4,-0.0112263588235,5124,84
5,-0.0112049849704,5125,84
6,-0.0111835375428,5126,84
7,-0.0111187621951,5127,84
8,-0.0110752228647,5128,84
9,-0.0110533488914,5129,84
10,-0.0109873190522,5130,84
11,-0.0109651759267,5131,84
12,-0.0109206950292,5132,84
13,-0.0108759589493,5133,84
14,-0.0108309751377,5134,84
15,-0.0107630491257,5135,84
16,-0.0107174748555,5136,84
17,-0.0106716770679,5137,84
18,-0.0106256650761,5138,84
19,-0.0105794435367,5139,84
20,-0.0105562573299,5140,84
21,-0.010533021763,5141,84
22,-0.0104630310088,5142,84
23,-0.0104161435738,5143,84
24,-0.0103690847754,5144,84
25,-0.0103218648583,5145,84
26,-0.0102981962264,5146,84
27,-0.0102269733325,5147,84
28,-0.0101793203503,5148,84
29,-0.0101315425709,5149,84
30,-0.0101076103747,5150,84
31,-0.010035651736,5151,84
32,-0.0100116170943,5152,84
33,-0.0100121758878,4906,84
34,-0.0100264372304,4907,84
35,-0.0100694559515,4908,84
36,-0.0100983371958,4909,84
37,-0.0101273860782,4910,84
38,-0.010141974315,4911,84
39,-0.0101860025898,4912,84
40,-0.0102007668465,4913,84
41,-0.0102304313332,4914,84
42,-0.0102602792904,4915,84
43,-0.0102903125808,4916,84
44,-0.0103053990752,4917,84
45,-0.010350943543,4918,84
46,-0.0103662200272,4919,84
47,-0.0104123363271,4920,84
48,-0.0104433204979,4921,84
49,-0.0104588847607,4922,84
50,-0.0105058616027,4923,84
51,-0.0105216158554,4924,84
52,-0.0105691645294,4925,84
53,-0.0106010977179,4926,84
54,-0.0106171341613,4927,84
55,-0.0106493439525,4928,84
56,-0.010681736283,4929,84
57,-0.0106979990378,4930,84
58,-0.0107470508665,4931,84
59,-0.0107799656689,4932,84
60,-0.0108130462468,4933,84
61,-0.010829648003,4934,84
62,-0.0108629707247,4935,84
63,-0.0108964461833,4936,84
64,-0.0109469350427,4937,84
65,-0.0109807699919,4938,84
66,-0.0110147371888,4939,84
67,-0.011048829183,4940,84
68,-0.0110830385238,4941,84
69,-0.011117358692,4942,84
70,-0.0111517803743,4943,84
71,-0.0111690266058,4944,84
72,-0.0112035842612,4945,84
73,-0.0112382229418,4946,84
74,-0.0112729333341,4947,84
75,-0.0112903118134,4948,84
76,-0.0113425292075,4949,84
77,-0.0113773951307,4950,84
78,-0.0114122927189,4951,84
79,-0.0114472117275,4952,84
80,-0.011482141912,4953,84
81,-0.0115170711651,4954,84
82,-0.0115519892424,4955,84
83,-0.0115868840367,4956,84
84,-0.011621744372,4957,84
85,-0.0116565590724,4958,84
86,-0.0116739450023,4959,84
87,-0.0117086665705,4960,84
88,-0.0117433108389,4961,84
89,-0.0117606008425,4962,84
90,-0.0118123209104,4963,84
91,-0.0118466606364,4964,84
92,-0.0118808737025,4965,84
93,-0.0119149480015,4966,84
94,-0.011931928806,4967,84
95,-0.011982624419,4968,84
96,-0.0119994366542,4969,84
97,-0.012032921426,4970,84
98,-0.0120827732608,4971,84
99,-0.0121157392859,4972,84
100,-0.0121484743431,4973,84
101,-0.0121647519991,4974,84
102,-0.0121809672564,4975,84
103,-0.0122292209417,4976,84
104,-0.0122610488907,4977,84
105,-0.0122768562287,4978,84
106,-0.0123238284141,4979,84
107,-0.0123547539115,4980,84
108,-0.0123853525147,4981,84
109,-0.0124156121165,4982,84
110,-0.0124306110665,4983,84
111,-0.0124750668183,4984,84
112,-0.0125042358413,4985,84
113,-0.0125330183655,4986,84
114,-0.0125472601503,4987,84
115,-0.0125754391775,4988,84
116,-0.0126032009721,4989,84
117,-0.0126305352896,4990,84
118,-0.0126574290916,4991,84
119,-0.0126707078889,4992,84
120,-0.0127098560333,4993,84
121,-0.012722671032,4994,84
122,-0.0127603961155,4995,84
123,-0.0127849336714,4996,84
124,-0.0128089673817,4997,84
125,-0.0128207933158,4998,84
126,-0.0128554906696,4999,84
127,-0.0128667932004,5000,84
128,-0.0128889959306,5001,84
129,-0.0129212765023,5002,84
130,-0.0129317604005,5003,84
131,-0.0129523072392,5004,84
132,-0.0129623673856,5005,84
133,-0.0129916872829,5006,84
134,-0.0130011700094,5007,84
135,-0.0130196940154,5008,84
136,-0.0130463633686,5009,84
137,-0.0130549520254,5010,84
138,-0.013079803437,5011,84
139,-0.0130956023932,5012,84
140,-0.0131107792258,5013,84
141,-0.0131253283471,5014,84
142,-0.0131323663518,5015,84
143,-0.0131525266916,5016,84
144,-0.0131651656702,5017,84
145,-0.013177158311,5018,84
146,-0.0131829120219,5019,84
147,-0.0131939286366,5020,84
148,-0.0132042905316,5021,84
149,-0.0132092246786,5022,84
150,-0.0132185984403,5023,84
151,-0.0132314162329,5024,84
152,-0.0132353566587,5025,84
153,-0.0132461749017,5026,84
154,-0.0132494466379,5027,84
155,-0.0132582532242,5028,84
156,-0.0132632842287,5029,84
157,-0.0132655482739,5030,84
158,-0.0132713271305,5031,84
159,-0.0132743371651,5032,84
160,-0.0132766738534,5033,84
161,-0.0132775893435,5034,84
