,amplitude,tstep,vfp
0,-0.0100290887058,5138,82
1,-0.0100939972326,5139,82
2,-0.0101262303069,5140,82
3,-0.0101902382448,5141,82
4,-0.0102536072955,5142,82
5,-0.0103163076565,5143,82
6,-0.0103783076629,5144,82
7,-0.0104395784438,5145,82
8,-0.0104699311778,5146,82
9,-0.0105598121881,5147,82
10,-0.0105893686414,5148,82
11,-0.0106767769903,5149,82
12,-0.0107339639217,5150,82
13,-0.0107902493328,5151,82
14,-0.0108180455863,5152,82
15,-0.0108729302883,5153,82
16,-0.0109534384683,5154,82
17,-0.0109797762707,5155,82
18,-0.0110058607534,5156,82
19,-0.011057253927,5157,82
20,-0.0111075965688,5158,82
21,-0.0111568644643,5159,82
22,-0.0112287020311,5160,82
23,-0.0112520875409,5161,82
24,-0.0113205285743,5162,82
25,-0.0113646993414,5163,82
26,-0.011386340484,5164,82
27,-0.0114287259057,5165,82
28,-0.0114900255576,5166,82
29,-0.0115098431706,5167,82
30,-0.0115674240515,5168,82
31,-0.0115859881043,5169,82
32,-0.0116397673264,5170,82
33,-0.0116570508108,5171,82
34,-0.0116906445473,5172,82
35,-0.011722933501,5173,82
36,-0.0117539074272,5174,82
37,-0.0117835588753,5175,82
38,-0.0118118803948,5176,82
39,-0.0118388645351,5177,82
40,-0.0118645075709,5178,82
41,-0.0118888039142,5179,82
42,-0.0119117507711,5180,82
43,-0.0119333453476,5181,82
44,-0.0119535895064,5182,82
45,-0.0119632044807,5183,82
46,-0.0119814202189,5184,82
47,-0.0119982846081,5185,82
48,-0.0120138032362,5186,82
49,-0.0120279779658,5187,82
50,-0.0120408125222,5188,82
51,-0.0120467301458,5189,82
52,-0.0120575688779,5190,82
53,-0.0120670860633,5191,82
54,-0.0120789026842,5192,82
55,-0.0120851555839,5193,82
56,-0.0120901213959,5194,82
57,-0.0120938112959,5195,82
58,-0.0120951822028,5196,82
59,-0.0120969833806,5197,82
60,-0.0120973633602,5198,82
61,-0.0120960911736,5199,82
62,-0.0120936175808,5200,82
63,-0.0120919365436,5201,82
64,-0.0120876953006,5202,82
65,-0.0120851406828,5203,82
66,-0.0120757687837,5204,82
67,-0.0120681226254,5205,82
68,-0.0120593830943,5206,82
69,-0.0120546100661,5207,82
70,-0.0120387142524,5208,82
71,-0.0120268305764,5209,82
72,-0.0120205115527,5210,82
73,-0.012000085786,5211,82
74,-0.0119927972555,5212,82
75,-0.0119775217026,5213,82
76,-0.0119529087096,5214,82
77,-0.0119442641735,5215,82
78,-0.0119263362139,5216,82
79,-0.011907578446,5217,82
80,-0.0118978982791,5218,82
81,-0.0118676889688,5219,82
82,-0.0118572423235,5220,82
83,-0.0118248229846,5221,82
84,-0.0118023483083,5222,82
85,-0.0117792179808,5223,82
86,-0.0117554618046,5224,82
87,-0.0117311095819,5225,82
88,-0.0117061929777,5226,82
89,-0.0116807417944,5227,82
90,-0.0116547858343,5228,82
91,-0.0116416281089,5229,82
92,-0.0116149717942,5230,82
93,-0.0115878870711,5231,82
94,-0.0115604046732,5232,82
95,-0.0115325525403,5233,82
96,-0.0115043623373,5234,82
97,-0.0114758629352,5235,82
98,-0.011447085999,5236,82
99,-0.0114180585369,5237,82
100,-0.0114034609869,5238,82
101,-0.0113741122186,5239,82
102,-0.0113297654316,5240,82
103,-0.0113000245765,5241,82
104,-0.0112701747566,5242,82
105,-0.0112552177161,5243,82
106,-0.0112252561375,5244,82
107,-0.0111802415922,5245,82
108,-0.011165230535,5246,82
109,-0.011135218665,5247,82
110,-0.0111202234402,5248,82
111,-0.011075318791,5249,82
112,-0.0110454782844,5250,82
113,-0.0110305948183,5251,82
114,-0.0109861269593,5252,82
115,-0.0109566580504,5253,82
116,-0.0109419850633,5254,82
117,-0.0108982389793,5255,82
118,-0.0108693270013,5256,82
119,-0.0108549539,5257,82
120,-0.0108121884987,5258,82
121,-0.0107980584726,5259,82
122,-0.0107699986547,5260,82
123,-0.0107422173023,5261,82
124,-0.0107147293165,5262,82
125,-0.0106875468045,5263,82
126,-0.0106606828049,5264,82
127,-0.0106473742053,5265,82
128,-0.0106079569086,5266,82
129,-0.0105949910358,5267,82
130,-0.0105693256482,5268,82
131,-0.0105315102264,5269,82
132,-0.0105190910399,5270,82
133,-0.0104824006557,5271,82
134,-0.0104703614488,5272,82
135,-0.0104348259047,5273,82
136,-0.0104116238654,5274,82
137,-0.0104001704603,5275,82
138,-0.0103775588796,5276,82
139,-0.0103664016351,5277,82
140,-0.0103335222229,5278,82
141,-0.0103120943531,5279,82
142,-0.0102910585701,5280,82
143,-0.0102704130113,5281,82
144,-0.01025015302,5282,82
145,-0.0102302739397,5283,82
146,-0.0102107711136,5284,82
147,-0.0101916380227,5285,82
148,-0.0101822083816,5286,82
149,-0.0101544531062,5287,82
150,-0.0101453764364,5288,82
151,-0.0101186567917,5289,82
152,-0.0101012559608,5290,82
153,-0.0100841727108,5291,82
154,-0.0100757470354,5292,82
155,-0.0100673958659,5293,82
156,-0.010050913319,5294,82
157,-0.0100267156959,5295,82
158,-0.0100187836215,5296,82
159,-0.0100031103939,5297,82
0,-0.0100002875552,5196,83
1,-0.010023644194,5197,83
2,-0.0100472224876,5198,83
3,-0.0100710028782,5199,83
4,-0.0100949686021,5200,83
5,-0.0101070143282,5201,83
6,-0.0101312175393,5202,83
7,-0.0101433712989,5203,83
8,-0.0101677672938,5204,83
9,-0.0102045461535,5205,83
10,-0.0102168424055,5206,83
11,-0.0102414758876,5207,83
12,-0.0102661410347,5208,83
13,-0.0103031452745,5209,83
14,-0.0103154703975,5210,83
15,-0.0103400843218,5211,83
16,-0.0103768669069,5212,83
17,-0.0104012582451,5213,83
18,-0.0104255136102,5214,83
19,-0.0104496041313,5215,83
20,-0.0104615800083,5216,83
21,-0.0104853734374,5217,83
22,-0.0104971854016,5218,83
23,-0.0105206193402,5219,83
24,-0.0105552431196,5220,83
25,-0.0105779329315,5221,83
26,-0.0106002762914,5222,83
27,-0.0106113087386,5223,83
28,-0.0106438044459,5224,83
29,-0.0106649324298,5225,83
30,-0.0106753250584,5226,83
31,-0.0107057765126,5227,83
32,-0.0107156727463,5228,83
33,-0.0107350638136,5229,83
34,-0.0107630928978,5230,83
35,-0.010772141628,5231,83
36,-0.0107897762209,5232,83
37,-0.0108067719266,5233,83
38,-0.0108231026679,5234,83
39,-0.0108310114592,5235,83
40,-0.0108536742628,5236,83
41,-0.010860864073,5237,83
42,-0.0108812982216,5238,83
43,-0.0108939483762,5239,83
44,-0.010905793868,5240,83
45,-0.010916814208,5241,83
46,-0.0109220091254,5242,83
47,-0.0109363021329,5243,83
48,-0.0109447352588,5244,83
49,-0.0109522677958,5245,83
50,-0.0109556932002,5246,83
51,-0.0109618501738,5247,83
52,-0.0109670702368,5248,83
53,-0.0109693259001,5249,83
54,-0.0109746521339,5250,83
55,-0.0109769888222,5251,83
56,-0.0109783438966,5252,83
57,-0.0109786503017,5253,83
58,-0.0109780747443,5254,83
59,-0.0109773818403,5255,83
60,-0.0109752407297,5256,83
61,-0.0109701305628,5257,83
62,-0.0109654553235,5258,83
63,-0.0109597649425,5259,83
64,-0.0109530603513,5260,83
65,-0.0109493266791,5261,83
66,-0.0109453396872,5262,83
67,-0.0109318625182,5263,83
68,-0.0109216216952,5264,83
69,-0.0109161259606,5265,83
70,-0.0109043912962,5266,83
71,-0.0108849396929,5267,83
72,-0.0108779687434,5268,83
73,-0.0108556095511,5269,83
74,-0.0108395144343,5270,83
75,-0.0108311166987,5271,83
76,-0.0108045358211,5272,83
77,-0.0107856830582,5273,83
78,-0.0107659446076,5274,83
79,-0.0107557503507,5275,83
80,-0.0107347173616,5276,83
81,-0.010712845251,5277,83
82,-0.0106901591644,5278,83
83,-0.0106666786596,5279,83
84,-0.0106424270198,5280,83
85,-0.0106300208718,5281,83
86,-0.0106046609581,5282,83
87,-0.0105653004721,5283,83
88,-0.0105382204056,5284,83
89,-0.0105244386941,5285,83
90,-0.0104821724817,5286,83
91,-0.010453261435,5287,83
92,-0.0104385977611,5288,83
93,-0.0103938169777,5289,83
94,-0.0103633468971,5290,83
95,-0.0103479390964,5291,83
96,-0.0103167975321,5292,83
97,-0.0102852480486,5293,83
98,-0.0102533241734,5294,83
99,-0.0102210622281,5295,83
100,-0.010188492015,5296,83
101,-0.0101556507871,5297,83
102,-0.0101225720719,5298,83
103,-0.0101059544832,5299,83
104,-0.0100558400154,5300,83
105,-0.0100390622392,5301,83
106,-0.0100054247305,5302,83
0,-0.0101419631392,5248,84
1,-0.0101397074759,5249,84
2,-0.0101379454136,5250,84
3,-0.0101359738037,5251,84
4,-0.0101337926462,5252,84
5,-0.0101314010099,5253,84
6,-0.0101287970319,5254,84
7,-0.0101274149492,5255,84
8,-0.0101229473948,5256,84
9,-0.0101197008044,5257,84
10,-0.010116238147,5258,84
11,-0.0101125575602,5259,84
12,-0.0101086590439,5260,84
13,-0.0101066268981,5261,84
14,-0.0101023977622,5262,84
15,-0.0100979497656,5263,84
16,-0.0100932801142,5264,84
17,-0.0100883897394,5265,84
18,-0.0100832758471,5266,84
19,-0.0100806355476,5267,84
20,-0.010072379373,5268,84
21,-0.0100665958598,5269,84
22,-0.0100636193529,5270,84
23,-0.0100574996322,5271,84
24,-0.0100478995591,5272,84
25,-0.010041218251,5273,84
26,-0.0100343134254,5274,84
27,-0.0100271832198,5275,84
28,-0.0100235352293,5276,84
29,-0.0100160706788,5277,84
30,-0.0100122541189,5278,84
31,-0.0100004710257,5279,84
32,-0.010000962764,5200,84
33,-0.0100082661957,5201,84
34,-0.0100153731182,5202,84
35,-0.010022284463,5203,84
36,-0.0100290030241,5204,84
37,-0.0100355288014,5205,84
38,-0.0100418627262,5206,84
39,-0.0100449584424,5207,84
40,-0.0100539615378,5208,84
41,-0.0100568681955,5209,84
42,-0.0100653069094,5210,84
43,-0.0100706983358,5211,84
44,-0.0100733237341,5212,84
45,-0.0100784357637,5213,84
46,-0.0100833633915,5214,84
47,-0.0100904079154,5215,84
48,-0.01009266451,5216,84
49,-0.0100948745385,5217,84
50,-0.0101012289524,5218,84
51,-0.0101032555103,5219,84
52,-0.0101071717218,5220,84
53,-0.0101127009839,5221,84
54,-0.010116157122,5222,84
55,-0.0101194297895,5223,84
56,-0.0101225180551,5224,84
57,-0.0101254228503,5225,84
58,-0.0101268058643,5226,84
59,-0.0101306783035,5227,84
60,-0.0101330270991,5228,84
61,-0.0101351896301,5229,84
62,-0.0101362010464,5230,84
63,-0.010138082318,5231,84
64,-0.0101397763938,5232,84
65,-0.0101405531168,5233,84
66,-0.0101419631392,5234,84
67,-0.0101437214762,5235,84
68,-0.0101442122832,5236,84
69,-0.0101453950629,5237,84
70,-0.0101459417492,5238,84
71,-0.0101462937891,5239,84
72,-0.0101463962346,5240,84
73,-0.0101464539766,5241,84
74,-0.0101461717859,5242,84
75,-0.0101457340643,5243,84
76,-0.0101454397663,5244,84
77,-0.0101447002962,5245,84
78,-0.0101437587291,5246,84
79,-0.0101432111114,5247,84
