,amplitude,tstep,vfp
0,-0.0100094731897,4237,88
1,-0.010025494732,4238,88
2,-0.0100743323565,4239,88
3,-0.0101075321436,4240,88
4,-0.010124322027,4241,88
5,-0.0101754469797,4242,88
6,-0.0102101480588,4243,88
7,-0.0102276802063,4244,88
8,-0.0102631030604,4245,88
9,-0.0102989934385,4246,88
10,-0.0103536713868,4247,88
11,-0.0103721152991,4248,88
12,-0.0104093169793,4249,88
13,-0.0104469209909,4250,88
14,-0.0104658678174,4251,88
15,-0.0105232549831,4252,88
16,-0.0105619383976,4253,88
17,-0.0106009347364,4254,88
18,-0.0106402141973,4255,88
19,-0.0106797507033,4256,88
20,-0.0107195135206,4257,88
21,-0.010759470053,4258,88
22,-0.0107795102522,4259,88
23,-0.0108398292214,4260,88
24,-0.0108801620081,4261,88
25,-0.0109205469489,4262,88
26,-0.0109407464042,4263,88
27,-0.010981134139,4264,88
28,-0.0110214743763,4265,88
29,-0.0110617242754,4266,88
30,-0.0111018409953,4267,88
31,-0.0111218355596,4268,88
32,-0.0111814979464,4269,88
33,-0.0112209459767,4270,88
34,-0.0112405540422,4271,88
35,-0.0112988455221,4272,88
36,-0.0113180791959,4273,88
37,-0.0113562131301,4274,88
38,-0.0113938627765,4275,88
39,-0.0114493258297,4276,88
40,-0.0114855533466,4277,88
41,-0.0115034254268,4278,88
42,-0.0115211280063,4279,88
43,-0.0115731572732,4280,88
44,-0.011606884189,4281,88
45,-0.0116397887468,4282,88
46,-0.0116559183225,4283,88
47,-0.0117029463872,4284,88
48,-0.0117331072688,4285,88
49,-0.011762265116,4286,88
50,-0.0117903752252,4287,88
51,-0.0118040256202,4288,88
52,-0.0118432929739,4289,88
53,-0.0118558052927,4290,88
54,-0.0118799358606,4291,88
55,-0.011913835071,4292,88
56,-0.0119245052338,4293,88
57,-0.0119448779151,4294,88
58,-0.0119545729831,4295,88
59,-0.0119816511869,4296,88
60,-0.0119980024174,4297,88
61,-0.0120129650459,4298,88
62,-0.0120265204459,4299,88
63,-0.0120386518538,4300,88
64,-0.0120493462309,4301,88
65,-0.0120585924014,4302,88
66,-0.0120626697317,4303,88
67,-0.0120727131143,4304,88
68,-0.0120775811374,4305,88
69,-0.012080989778,4306,88
70,-0.012082147412,4307,88
71,-0.0120833758265,4308,88
72,-0.0120831625536,4309,88
73,-0.012082519941,4310,88
74,-0.0120784705505,4311,88
75,-0.0120740262792,4312,88
76,-0.0120712900534,4313,88
77,-0.012064804323,4314,88
78,-0.0120569923893,4315,88
79,-0.0120478849858,4316,88
80,-0.0120318727568,4317,88
81,-0.0120196873322,4318,88
82,-0.0120063442737,4319,88
83,-0.011991886422,4320,88
84,-0.0119842551649,4321,88
85,-0.0119598293677,4322,88
86,-0.0119511988014,4323,88
87,-0.0119332484901,4324,88
88,-0.0119239427149,4325,88
89,-0.0118947932497,4326,88
90,-0.0118744131178,4327,88
91,-0.0118533503264,4328,88
92,-0.0118316728622,4329,88
93,-0.0118206255138,4330,88
94,-0.0117867505178,4331,88
95,-0.01177524589,4332,88
96,-0.011740218848,4333,88
97,-0.0117284031585,4334,88
98,-0.0117046190426,4335,88
99,-0.0116806961596,4336,88
100,-0.0116447173059,4337,88
101,-0.0116207813844,4338,88
102,-0.0116088576615,4339,88
103,-0.0115969758481,4340,88
104,-0.0115733770654,4341,88
105,-0.0115385372192,4342,88
106,-0.0115157933906,4343,88
107,-0.0114935236052,4344,88
108,-0.0114718023688,4345,88
109,-0.0114611703902,4346,88
110,-0.0114302989095,4347,88
111,-0.0114106573164,4348,88
112,-0.0114011438563,4349,88
113,-0.0113827707246,4350,88
114,-0.0113653261214,4351,88
115,-0.0113410335034,4352,88
116,-0.0113334655762,4353,88
117,-0.0113191660494,4354,88
118,-0.0113124474883,4355,88
119,-0.0112940948457,4356,88
120,-0.0112834200263,4357,88
121,-0.0112785678357,4358,88
122,-0.0112660089508,4359,88
123,-0.0112593481317,4360,88
124,-0.0112565439194,4361,88
125,-0.0112502761185,4362,88
126,-0.0112479152158,4363,88
127,-0.0112470332533,4364,88
128,-0.0112476451322,4365,88
129,-0.0112497601658,4366,88
130,-0.0112533848733,4367,88
131,-0.0112557644024,4368,88
132,-0.0112616568804,4369,88
133,-0.0112690543756,4370,88
134,-0.011273314245,4371,88
135,-0.0112883178517,4372,88
136,-0.0112940538675,4373,88
137,-0.0113134263083,4374,88
138,-0.01132810954,4375,88
139,-0.0113441701978,4376,88
140,-0.0113615710288,4377,88
141,-0.0113802710548,4378,88
142,-0.011400224641,4379,88
143,-0.0114213814959,4380,88
144,-0.0114323943853,4381,88
145,-0.0114670842886,4382,88
146,-0.0114791728556,4383,88
147,-0.0115040903911,4384,88
148,-0.0115299392492,4385,88
149,-0.0115566486493,4386,88
150,-0.0115703027695,4387,88
151,-0.0116123491898,4388,88
152,-0.0116411847994,4389,88
153,-0.0116705680266,4390,88
154,-0.0116854384542,4391,88
155,-0.01173063647,4392,88
156,-0.0117458608001,4393,88
157,-0.0117918513715,4394,88
158,-0.0118226613849,4395,88
159,-0.0118380766362,4396,88
160,-0.0118842199445,4397,88
161,-0.0119147775695,4398,88
162,-0.0119299590588,4399,88
163,-0.011960066855,4400,88
164,-0.0119897536933,4401,88
165,-0.0120044089854,4402,88
166,-0.0120474789292,4403,88
167,-0.0120614971966,4404,88
168,-0.0121023664251,4405,88
169,-0.0121285095811,4406,88
170,-0.0121536608785,4407,88
171,-0.0121777281165,4408,88
172,-0.0122006228194,4409,88
173,-0.0122222574428,4410,88
174,-0.0122425463051,4411,88
175,-0.012252160348,4412,88
176,-0.0122787579894,4413,88
177,-0.0122868428007,4414,88
178,-0.0122945215553,4415,88
179,-0.0123086217791,4416,88
180,-0.0123264994472,4417,88
181,-0.0123315518722,4418,88
182,-0.0123438769951,4419,88
183,-0.0123470164835,4420,88
184,-0.0123534258455,4421,88
185,-0.0123551273718,4422,88
186,-0.0123551897705,4423,88
187,-0.0123521517962,4424,88
188,-0.0123500479385,4425,88
189,-0.0123404012993,4426,88
190,-0.0123311532661,4427,88
191,-0.0123256733641,4428,88
192,-0.012312989682,4429,88
193,-0.0122979916632,4430,88
194,-0.012280665338,4431,88
195,-0.0122610013932,4432,88
196,-0.0122389951721,4433,88
197,-0.012214647606,4434,88
198,-0.0122015969828,4435,88
199,-0.0121589489281,4436,88
200,-0.0121276220307,4437,88
201,-0.0120940003544,4438,88
202,-0.0120581053197,4439,88
203,-0.0120199648663,4440,88
204,-0.0119796115905,4441,88
205,-0.0119370799512,4442,88
206,-0.0118924118578,4443,88
207,-0.0118692899123,4444,88
208,-0.0118215000257,4445,88
209,-0.0117716901004,4446,88
210,-0.0117199122906,4447,88
211,-0.0116933044046,4448,88
212,-0.0116106942296,4449,88
213,-0.0115822544321,4450,88
214,-0.0114943394437,4451,88
215,-0.0114336563274,4452,88
216,-0.011371399276,4453,88
217,-0.0113076418638,4454,88
218,-0.0112424632534,4455,88
219,-0.0111759435385,4456,88
220,-0.0111422063783,4457,88
221,-0.0110392095521,4458,88
222,-0.0110043184832,4459,88
223,-0.0109337614849,4460,88
224,-0.0108622442931,4461,88
225,-0.010789857246,4462,88
226,-0.0107166906819,4463,88
227,-0.0106798419729,4464,88
228,-0.0105683766305,4465,88
229,-0.0104934126139,4466,88
230,-0.010418032296,4467,88
231,-0.0103423278779,4468,88
232,-0.0102663906291,4469,88
233,-0.0102283619344,4470,88
234,-0.0101522440091,4471,88
235,-0.0100380815566,4472,88
236,-0.0100000752136,4473,88
237,0.0100154997781,3488,88
238,0.01003201399,3489,88
239,0.0100402729586,3490,88
240,0.0100567853078,3491,88
241,0.0100650368258,3492,88
242,0.0100897522643,3493,88
243,0.0101061798632,3494,88
244,0.0101225543767,3495,88
245,0.0101388627663,3496,88
246,0.0101550919935,3497,88
247,0.0101712280884,3498,88
248,0.0101872570813,3499,88
249,0.0101952273399,3500,88
250,0.0102110709995,3501,88
251,0.0102345645428,3502,88
252,0.0102500263602,3503,88
253,0.0102653130889,3504,88
254,0.0102804088965,3505,88
255,0.0102878808975,3506,88
256,0.0102952998132,3507,88
257,0.0103172212839,3508,88
258,0.0103315394372,3509,88
259,0.0103456042707,3510,88
260,0.0103594018146,3511,88
261,0.0103661967441,3512,88
262,0.010386143811,3513,88
263,0.0103990621865,3514,88
264,0.0104054016992,3515,88
265,0.0104178376496,3516,88
266,0.0104358540848,3517,88
267,0.0104474239051,3518,88
268,0.0104586258531,3519,88
269,0.0104640861973,3520,88
270,0.0104747191072,3521,88
271,0.0104849580675,3522,88
272,0.0104899266735,3523,88
273,0.0105042159557,3524,88
274,0.0105087691918,3525,88
275,0.010517555289,3526,88
276,0.0105299167335,3527,88
277,0.0105376020074,3528,88
278,0.0105448327959,3529,88
279,0.0105482758954,3530,88
280,0.0105548147112,3531,88
281,0.0105608832091,3532,88
282,0.0105690956116,3533,88
283,0.0105739701539,3534,88
284,0.0105783594772,3535,88
285,0.0105822598562,3536,88
286,0.0105840265751,3537,88
287,0.0105871893466,3538,88
288,0.0105898594484,3539,88
289,0.0105920331553,3540,88
290,0.0105929337442,3541,88
291,0.0105948895216,3542,88
292,0.0105952937156,3543,88
293,0.0105957621709,3544,88
294,0.010595456697,3545,88
295,0.0105946594849,3546,88
296,0.0105933733284,3547,88
297,0.0105925472453,3548,88
298,0.0105893453583,3549,88
299,0.0105866119266,3550,88
300,0.0105850668624,3551,88
301,0.0105816237628,3552,88
302,0.0105797275901,3553,88
303,0.0105733452365,3554,88
304,0.0105709889904,3555,88
305,0.0105659393594,3556,88
306,0.0105604464188,3557,88
307,0.0105513874441,3558,88
308,0.0105448160321,3559,88
309,0.0105413729325,3560,88
310,0.0105341775343,3561,88
311,0.010522628203,3562,88
312,0.0105144381523,3563,88
313,0.010505865328,3564,88
314,0.0105014387518,3565,88
315,0.0104876123369,3566,88
316,0.0104828253388,3567,88
317,0.0104729924351,3568,88
318,0.0104628233239,3569,88
319,0.0104576153681,3570,88
320,0.0104415155947,3571,88
321,0.0104303993285,3572,88
322,0.010418987833,3573,88
323,0.0104072932154,3574,88
324,0.0104013429955,3575,88
325,0.0103830965236,3576,88
326,0.0103768864647,3577,88
327,0.0103642847389,3578,88
328,0.0103514473885,3579,88
329,0.0103317759931,3580,88
330,0.0103184003383,3581,88
331,0.0103116380051,3582,88
332,0.0102979708463,3583,88
333,0.0102841230109,3584,88
334,0.0102701038122,3585,88
335,0.0102559234947,3586,88
336,0.0102487765253,3587,88
337,0.0102271214128,3588,88
338,0.0102125182748,3589,88
339,0.0102051692083,3590,88
340,0.0101903844625,3591,88
341,0.0101680057123,3592,88
342,0.0101529639214,3593,88
343,0.0101378345862,3594,88
344,0.0101302387193,3595,88
345,0.0101149892434,3596,88
346,0.0100996708497,3597,88
347,0.0100842900574,3598,88
348,0.0100688533857,3599,88
349,0.010053367354,3600,88
350,0.0100378366187,3601,88
351,0.0100222686306,3602,88
352,0.0100066661835,3603,88
0,-0.010024397634,4253,89
1,-0.0101109296083,4254,89
2,-0.0101978303865,4255,89
3,-0.0102850021794,4256,89
4,-0.0103286607191,4257,89
5,-0.0104597657919,4258,89
6,-0.0105471555144,4259,89
7,-0.0106344120577,4260,89
8,-0.0106779588386,4261,89
9,-0.0107648232952,4262,89
10,-0.0108512993902,4263,89
11,-0.0109372837469,4264,89
12,-0.0110226711258,4265,89
13,-0.0110651087016,4266,89
14,-0.0111494092271,4267,89
15,-0.0112328566611,4268,89
16,-0.0113562094048,4269,89
17,-0.0114370835945,4270,89
18,-0.0115167554468,4271,89
19,-0.0115561084822,4272,89
20,-0.0116337938234,4273,89
21,-0.0117475865409,4274,89
22,-0.0117847425863,4275,89
23,-0.0118578234687,4276,89
24,-0.0119642037898,4277,89
25,-0.0119987567887,4278,89
26,-0.0120664415881,4279,89
27,-0.0120995528996,4280,89
28,-0.0121958460659,4281,89
29,-0.0122574139386,4282,89
30,-0.01231679786,4283,89
31,-0.0123739298433,4284,89
32,-0.012401631102,4285,89
33,-0.0124811893329,4286,89
34,-0.0125312004238,4287,89
35,-0.0125787323341,4288,89
36,-0.0126015515998,4289,89
37,-0.0126661611721,4290,89
38,-0.0127059780061,4291,89
39,-0.0127248959616,4292,89
40,-0.0127607304603,4293,89
41,-0.0127776414156,4294,89
42,-0.0128243099898,4295,89
43,-0.0128520112485,4296,89
44,-0.0128769669682,4297,89
45,-0.0128884129226,4298,89
46,-0.0129092354327,4299,89
47,-0.012935298495,4300,89
48,-0.0129492310807,4301,89
49,-0.0129604199901,4302,89
50,-0.0129688810557,4303,89
51,-0.0129746329039,4304,89
52,-0.0129776997492,4305,89
53,-0.0129782352597,4306,89
54,-0.0129773309454,4307,89
55,-0.012973821722,4308,89
56,-0.0129677485675,4309,89
57,-0.0129591561854,4310,89
58,-0.0129539296031,4311,89
59,-0.0129416491836,4312,89
60,-0.0129187656567,4313,89
61,-0.0129006234929,4314,89
62,-0.0128907095641,4315,89
63,-0.0128577006981,4316,89
64,-0.0128330597654,4317,89
65,-0.0128199765459,4318,89
66,-0.0127923367545,4319,89
67,-0.0127627970651,4320,89
68,-0.0127151058987,4321,89
69,-0.0126983504742,4322,89
70,-0.0126636195928,4323,89
71,-0.0126456655562,4324,89
72,-0.0126086426899,4325,89
73,-0.0125504955649,4326,89
74,-0.0125101273879,4327,89
75,-0.0124685922638,4328,89
76,-0.0124259907752,4329,89
77,-0.0123824244365,4330,89
78,-0.0123379966244,4331,89
79,-0.0122928088531,4332,89
80,-0.012246966362,4333,89
81,-0.0122238313779,4334,89
82,-0.0121772019193,4335,89
83,-0.0121301775798,4336,89
84,-0.0120828654617,4337,89
85,-0.0120115755126,4338,89
86,-0.0119877802208,4339,89
87,-0.0119402166456,4340,89
88,-0.0119164735079,4341,89
89,-0.0118691278622,4342,89
90,-0.0118220532313,4343,89
91,-0.0117753474042,4344,89
92,-0.0117061883211,4345,89
93,-0.0116608198732,4346,89
94,-0.0116161480546,4347,89
95,-0.011594099924,4348,89
96,-0.0115292426199,4349,89
97,-0.0114871803671,4350,89
98,-0.0114461509511,4351,89
99,-0.0114062335342,4352,89
100,-0.011367501691,4353,89
101,-0.011348602362,4354,89
102,-0.011311782524,4355,89
103,-0.0112763177603,4356,89
104,-0.0112422695383,4357,89
105,-0.0112096993253,4358,89
106,-0.0111939860508,4359,89
107,-0.0111492006108,4360,89
108,-0.0111350789666,4361,89
109,-0.0110952025279,4362,89
110,-0.0110827581957,4363,89
111,-0.0110480282456,4364,89
112,-0.0110373320058,4365,89
113,-0.0110079282895,4366,89
114,-0.0109990304336,4367,89
115,-0.0109750805423,4368,89
116,-0.0109680164605,4369,89
117,-0.0109552741051,4370,89
118,-0.0109443841502,4371,89
119,-0.0109353456646,4372,89
120,-0.0109281558543,4373,89
121,-0.0109252510592,4374,89
122,-0.0109192831442,4375,89
123,-0.0109182009473,4376,89
124,-0.0109176449478,4377,89
125,-0.0109194843099,4378,89
126,-0.0109230568632,4379,89
127,-0.0109283300117,4380,89
128,-0.0109352683648,4381,89
129,-0.0109438281506,4382,89
130,-0.0109487017617,4383,89
131,-0.0109596112743,4384,89
132,-0.0109720220789,4385,89
133,-0.0109787741676,4386,89
134,-0.01100113336,4387,89
135,-0.0110177183524,4388,89
136,-0.011026491411,4389,89
137,-0.0110449558124,4390,89
138,-0.0110748214647,4391,89
139,-0.0110960751772,4392,89
140,-0.0111183179542,4393,89
141,-0.0111297862604,4394,89
142,-0.011153367348,4395,89
143,-0.0111902058125,4396,89
144,-0.0112156243995,4397,89
145,-0.0112416306511,4398,89
146,-0.0112548293546,4399,89
147,-0.0112681454048,4400,89
148,-0.0113086747006,4401,89
149,-0.0113360732794,4402,89
150,-0.0113636748865,4403,89
151,-0.0113775227219,4404,89
152,-0.0114191276953,4405,89
153,-0.0114468010142,4406,89
154,-0.0114605855197,4407,89
155,-0.0115016009659,4408,89
156,-0.0115151237696,4409,89
157,-0.0115550868213,4410,89
158,-0.0115681700408,4411,89
159,-0.0116065600887,4412,89
160,-0.0116313295439,4413,89
161,-0.011643435806,4414,89
162,-0.0116553427652,4415,89
163,-0.0116785187274,4416,89
164,-0.0117115359753,4417,89
165,-0.0117220366374,4418,89
166,-0.0117518994957,4419,89
167,-0.0117703452706,4420,89
168,-0.0117791015655,4421,89
169,-0.011803410016,4422,89
170,-0.01181789767,4423,89
171,-0.0118246022612,4424,89
172,-0.0118368938565,4425,89
173,-0.0118476487696,4426,89
174,-0.0118568129838,4427,89
175,-0.0118674598634,4428,89
176,-0.0118701579049,4429,89
177,-0.0118724200875,4430,89
178,-0.0118765458465,4431,89
179,-0.011877018027,4432,89
180,-0.0118765756488,4433,89
181,-0.0118723921478,4434,89
182,-0.0118700433522,4435,89
183,-0.0118600893766,4436,89
184,-0.0118510033935,4437,89
185,-0.0118399355561,4438,89
186,-0.0118268718943,4439,89
187,-0.0118195889518,4440,89
188,-0.0117947235703,4441,89
189,-0.011775626801,4442,89
190,-0.0117545127869,4443,89
191,-0.0117432018742,4444,89
192,-0.0117190759629,4445,89
193,-0.0116929495707,4446,89
194,-0.0116791408509,4447,89
195,-0.011634754017,4448,89
196,-0.0116027193144,4449,89
197,-0.0115687558427,4450,89
198,-0.0115328887478,4451,89
199,-0.0114951487631,4452,89
200,-0.011455565691,4453,89
201,-0.0114350942895,4454,89
202,-0.0113928131759,4455,89
203,-0.011326123029,4456,89
204,-0.0113030420616,4457,89
205,-0.0112313255668,4458,89
206,-0.0112066138536,4459,89
207,-0.0111560188234,4460,89
208,-0.0111039057374,4461,89
209,-0.011050324887,4462,89
210,-0.0109953321517,4463,89
211,-0.0109673226252,4464,89
212,-0.0108813364059,4465,89
213,-0.0108520444483,4466,89
214,-0.0107925627381,4467,89
215,-0.0107319327071,4468,89
216,-0.0106389727443,4469,89
217,-0.0106074819341,4470,89
218,-0.0105116041377,4471,89
219,-0.0104465959594,4472,89
220,-0.0103807933629,4473,89
221,-0.0103476159275,4474,89
222,-0.0102807469666,4475,89
223,-0.0102470722049,4476,89
224,-0.0101451873779,4477,89
225,-0.0100766280666,4478,89
226,-0.0100076366216,4479,89
0,-0.0100394468755,4253,90
1,-0.0101295486093,4254,90
2,-0.0102191148326,4255,90
3,-0.0102636627853,4256,90
4,-0.0103962048888,4257,90
5,-0.0104399751872,4258,90
6,-0.0105698658153,4259,90
7,-0.0106126479805,4260,90
8,-0.0107392687351,4261,90
9,-0.0108221210539,4262,90
10,-0.0108630424365,4263,90
11,-0.0109036099166,4264,90
12,-0.010983640328,4265,90
13,-0.0111007485539,4266,90
14,-0.0111389560625,4267,90
15,-0.0112509429455,4268,90
16,-0.0113232992589,4269,90
17,-0.0113937202841,4270,90
18,-0.0114621305838,4271,90
19,-0.0115284593776,4272,90
20,-0.0115926349536,4273,90
21,-0.0116545921192,4274,90
22,-0.0117142731324,4275,90
23,-0.0117716193199,4276,90
24,-0.0118265785277,4277,90
25,-0.0118531491607,4278,90
26,-0.0119044398889,4279,90
27,-0.0119532318786,4280,90
28,-0.011976679787,4281,90
29,-0.0120431818068,4282,90
30,-0.012064056471,4283,90
31,-0.0121227614582,4284,90
32,-0.0121586127207,4285,90
33,-0.0121918171644,4286,90
34,-0.0122074261308,4287,90
35,-0.0122502688318,4288,90
36,-0.0122755151242,4289,90
37,-0.0122981173918,4290,90
38,-0.012308430858,4291,90
39,-0.0123270926997,4292,90
40,-0.0123431524262,4293,90
41,-0.0123566333205,4294,90
42,-0.0123675651848,4295,90
43,-0.0123759824783,4296,90
44,-0.0123792598024,4297,90
45,-0.0123854326084,4298,90
46,-0.0123865567148,4299,90
47,-0.0123862400651,4300,90
48,-0.012381860055,4301,90
49,-0.0123761566356,4302,90
50,-0.0123724937439,4303,90
51,-0.0123583581299,4304,90
52,-0.0123464008793,4305,90
53,-0.0123396897689,4306,90
54,-0.0123167457059,4307,90
55,-0.0123081933707,4308,90
56,-0.0122992051765,4309,90
57,-0.0122697353363,4310,90
58,-0.0122481118888,4311,90
59,-0.0122250057757,4312,90
60,-0.0122005129233,4313,90
61,-0.0121877752244,4314,90
62,-0.012147734873,4315,90
63,-0.0121196415275,4316,90
64,-0.0120905414224,4317,90
65,-0.0120605304837,4318,90
66,-0.012045214884,4319,90
67,-0.0119981737807,4320,90
68,-0.0119821717963,4321,90
69,-0.0119333667681,4322,90
70,-0.0119168749079,4323,90
71,-0.011883626692,4324,90
72,-0.0118501111865,4325,90
73,-0.0118332831189,4326,90
74,-0.0117826592177,4327,90
75,-0.0117489136755,4328,90
76,-0.011732077226,4329,90
77,-0.0116818472743,4330,90
78,-0.0116487052292,4331,90
79,-0.0116159422323,4332,90
80,-0.0115997288376,4333,90
81,-0.0115676885471,4334,90
82,-0.0115362312645,4335,90
83,-0.0114903086796,4336,90
84,-0.0114606432617,4337,90
85,-0.0114318197593,4338,90
86,-0.0114177428186,4339,90
87,-0.0113903032616,4340,90
88,-0.0113638620824,4341,90
89,-0.0113510340452,4342,90
90,-0.0113142058253,4343,90
91,-0.0113024991006,4344,90
92,-0.0112691791728,4345,90
93,-0.0112485140562,4346,90
94,-0.0112291295081,4347,90
95,-0.0112110599875,4348,90
96,-0.0111943334341,4349,90
97,-0.0111789721996,4350,90
98,-0.0111649977043,4351,90
99,-0.0111524239182,4352,90
100,-0.0111466674134,4353,90
101,-0.0111362151802,4354,90
102,-0.0111315222457,4355,90
103,-0.0111195705831,4356,90
104,-0.0111133735627,4357,90
105,-0.0111085828394,4358,90
106,-0.0111051881686,4359,90
107,-0.0111040081829,4360,90
108,-0.0111025096849,4361,90
109,-0.0111031802371,4362,90
110,-0.0111051537097,4363,90
111,-0.0111066196114,4364,90
112,-0.0111128780991,4365,90
113,-0.0111185545102,4366,90
114,-0.011121828109,4367,90
115,-0.011133318767,4368,90
116,-0.0111376876011,4369,90
117,-0.0111423134804,4370,90
118,-0.0111576756462,4371,90
119,-0.0111690824851,4372,90
120,-0.0111813563854,4373,90
121,-0.0111877992749,4374,90
122,-0.0112082567066,4375,90
123,-0.0112154241651,4376,90
124,-0.0112378643826,4377,90
125,-0.0112456288189,4378,90
