,amplitude,tstep,vfp
0,-0.0103973532096,4096,88
1,-0.0104250758886,4097,88
2,-0.0104386704043,4098,88
3,-0.0104783857241,4099,88
4,-0.0105039766058,4100,88
5,-0.0105288606137,4101,88
6,-0.0105410385877,4102,88
7,-0.0105765201151,4103,88
8,-0.0105993011966,4104,88
9,-0.0106213875115,4105,88
10,-0.0106321712956,4106,88
11,-0.0106634916738,4107,88
12,-0.0106735890731,4108,88
13,-0.0107028651983,4109,88
14,-0.0107122873887,4110,88
15,-0.0107306279242,4111,88
16,-0.0107483044267,4112,88
17,-0.0107568949461,4113,88
18,-0.010781686753,4114,88
19,-0.0107974056154,4115,88
20,-0.0108124846593,4116,88
21,-0.010826931335,4117,88
22,-0.0108407530934,4118,88
23,-0.0108539564535,4119,88
24,-0.0108665497974,4120,88
25,-0.0108785415068,4121,88
26,-0.0108899390325,4122,88
27,-0.0109007516876,4123,88
28,-0.0109109869227,4124,88
29,-0.0109158912674,4125,88
30,-0.0109252780676,4126,88
31,-0.0109341107309,4127,88
32,-0.0109383221716,4128,88
33,-0.0109501527622,4129,88
34,-0.0109573788941,4130,88
35,-0.0109640900046,4131,88
36,-0.0109702935442,4132,88
37,-0.0109759997576,4133,88
38,-0.0109812188894,4134,88
39,-0.0109859602526,4135,88
40,-0.0109902331606,4136,88
41,-0.0109940497205,4137,88
42,-0.010995789431,4138,88
43,-0.0109989373013,4139,88
44,-0.0110028497875,4140,88
45,-0.0110039431602,4141,88
46,-0.0110058197752,4142,88
47,-0.0110072912648,4143,88
48,-0.0110078789294,4144,88
49,-0.0110090589151,4145,88
50,-0.0110093737021,4146,88
51,-0.0110093206167,4147,88
52,-0.0110091585666,4148,88
53,-0.0110085699707,4149,88
54,-0.0110070407391,4150,88
55,-0.0110056018457,4151,88
56,-0.0110038379207,4152,88
57,-0.011002836749,4153,88
58,-0.0109993647784,4154,88
59,-0.0109966704622,4155,88
60,-0.0109936809167,4156,88
61,-0.0109920771793,4157,88
62,-0.0109886573628,4158,88
63,-0.0109868422151,4159,88
64,-0.01098098699,4160,88
65,-0.0109767504036,4161,88
66,-0.0109722530469,4162,88
67,-0.010969908908,4163,88
68,-0.0109624993056,4164,88
69,-0.0109572531655,4165,88
70,-0.0109517686069,4166,88
71,-0.0109460484236,4167,88
72,-0.0109400982037,4168,88
73,-0.0109339198098,4169,88
74,-0.010927519761,4170,88
75,-0.0109208999202,4171,88
76,-0.0109175089747,4172,88
77,-0.0109105678275,4173,88
78,-0.0109034152701,4174,88
79,-0.0108960540965,4175,88
80,-0.0108884889632,4176,88
81,-0.0108807208017,4177,88
82,-0.0108727505431,4178,88
83,-0.0108645828441,4179,88
84,-0.0108562195674,4180,88
85,-0.0108476625755,4181,88
86,-0.0108433123678,4182,88
87,-0.0108344675973,4183,88
88,-0.010820845142,4184,88
89,-0.0108162108809,4185,88
90,-0.0108020287007,4186,88
91,-0.0107972091064,4187,88
92,-0.0107923429459,4188,88
93,-0.0107774734497,4189,88
94,-0.0107724266127,4190,88
95,-0.010757016018,4191,88
96,-0.0107465190813,4192,88
97,-0.0107412040234,4193,88
98,-0.0107249990106,4194,88
99,-0.0107139796019,4195,88
100,-0.0107084047049,4196,88
101,-0.0106914257631,4197,88
102,-0.0106856822968,4198,88
103,-0.0106740714982,4199,88
104,-0.0106622958556,4200,88
105,-0.0106443278491,4201,88
106,-0.0106382584199,4202,88
107,-0.0106260022148,4203,88
108,-0.0106135914102,4204,88
109,-0.0106010278687,4205,88
110,-0.0105946902186,4206,88
111,-0.01057546027,4207,88
112,-0.0105624618009,4208,88
113,-0.0105559108779,4209,88
114,-0.0105360560119,4210,88
115,-0.0105226561427,4211,88
116,-0.0105091314763,4212,88
117,-0.0104954866692,4213,88
118,-0.0104817282408,4214,88
119,-0.0104678589851,4215,88
120,-0.010460886173,4216,88
121,-0.0104468660429,4217,88
122,-0.010432750918,4218,88
123,-0.0104185482487,4219,88
124,-0.0104042645544,4220,88
125,-0.0103899072856,4221,88
126,-0.0103827035055,4222,88
127,-0.0103610036895,4223,88
128,-0.0103464722633,4224,88
129,-0.010331899859,4225,88
130,-0.010324601084,4226,88
131,-0.0103099830449,4227,88
132,-0.0102880233899,4228,88
133,-0.0102733764797,4229,88
134,-0.0102587351575,4230,88
135,-0.0102514196187,4231,88
136,-0.0102295121178,4232,88
137,-0.0102222263813,4233,88
138,-0.0102076893672,4234,88
139,-0.0101932073012,4235,88
140,-0.0101787922904,4236,88
141,-0.010164456442,4237,88
142,-0.0101502109319,4238,88
143,-0.0101431263611,4239,88
144,-0.0101220402867,4240,88
145,-0.0101081393659,4241,88
146,-0.0100943809375,4242,88
147,-0.0100807761773,4243,88
148,-0.0100740352646,4244,88
149,-0.0100606866181,4245,88
150,-0.0100410180166,4246,88
151,-0.0100281620398,4247,88
152,-0.0100218150765,4248,88
153,-0.0100092953071,4249,88
154,-0.0100031243637,4250,88
155,-0.0100024174899,4311,88
156,-0.0100141456351,4312,88
157,-0.0100259948522,4313,88
158,-0.0100379409268,4314,88
159,-0.0100439433008,4315,88
160,-0.0100620295852,4316,88
161,-0.0100680738688,4317,88
162,-0.0100862141699,4318,88
163,-0.0100982803851,4319,88
164,-0.0101102972403,4320,88
165,-0.0101222395897,4321,88
166,-0.0101340822875,4322,88
167,-0.010139958933,4323,88
168,-0.0101516069844,4324,88
169,-0.0101630948484,4325,88
170,-0.0101744001731,4326,88
171,-0.0101799769327,4327,88
172,-0.0101909618825,4328,88
173,-0.0102069806308,4329,88
174,-0.010217320174,4330,88
175,-0.0102273635566,4331,88
176,-0.0102322679013,4332,88
177,-0.0102464808151,4333,88
178,-0.0102555165067,4334,88
179,-0.0102641778067,4335,88
180,-0.0102724488825,4336,88
181,-0.0102764321491,4337,88
182,-0.0102877514437,4338,88
183,-0.0102913090959,4339,88
184,-0.0102947549894,4340,88
185,-0.0103044118732,4341,88
186,-0.0103102661669,4342,88
187,-0.0103156408295,4343,88
188,-0.0103205284104,4344,88
189,-0.0103227868676,4345,88
190,-0.0103288097307,4346,88
191,-0.0103321922943,4347,88
192,-0.0103350626305,4348,88
193,-0.0103363050148,4349,88
194,-0.01033925917,4350,88
195,-0.0103405835107,4351,88
196,-0.0103410528973,4352,88
197,-0.0103416927159,4353,88
198,-0.0103416508064,4354,88
199,-0.010341190733,4355,88
200,-0.0103402314708,4356,88
201,-0.0103395665064,4357,88
202,-0.0103368451819,4358,88
203,-0.010334437713,4359,88
204,-0.0103315683082,4360,88
205,-0.0103299636394,4361,88
206,-0.0103244921193,4362,88
207,-0.0103203123435,4363,88
208,-0.0103157265112,4364,88
209,-0.010310751386,4365,88
210,-0.0103081222624,4366,88
211,-0.0103025939316,4367,88
212,-0.0102936597541,4368,88
213,-0.0102905202657,4369,88
214,-0.0102873044088,4370,88
215,-0.0102806538343,4371,88
216,-0.0102737285197,4372,88
217,-0.0102665498853,4373,88
218,-0.0102553572506,4374,88
219,-0.010247644037,4375,88
220,-0.0102437213063,4376,88
221,-0.0102317165583,4377,88
222,-0.01022764761,4378,88
223,-0.0102152768523,4379,88
224,-0.0102069200948,4380,88
225,-0.0101985037327,4381,88
226,-0.0101942792535,4382,88
227,-0.0101815760136,4383,88
228,-0.0101773403585,4384,88
229,-0.0101688848808,4385,88
230,-0.0101646687835,4386,88
231,-0.0101521015167,4387,88
232,-0.0101479468867,4388,88
233,-0.0101397028193,4389,88
234,-0.0101275332272,4390,88
235,-0.0101195760071,4391,88
236,-0.0101117612794,4392,88
237,-0.0101079121232,4393,88
238,-0.0100966142491,4394,88
239,-0.0100893061608,4395,88
240,-0.0100821908563,4396,88
241,-0.0100787077099,4397,88
242,-0.0100685693324,4398,88
243,-0.0100652957335,4399,88
244,-0.0100589133799,4400,88
245,-0.0100527517498,4401,88
246,-0.0100497547537,4402,88
247,-0.0100411009043,4403,88
248,-0.0100356116891,4404,88
249,-0.0100303441286,4405,88
250,-0.0100252944976,4406,88
251,-0.0100228497759,4407,88
252,-0.0100158248097,4408,88
253,-0.0100113889202,4409,88
254,-0.010007138364,4410,88
255,-0.0100030610338,4411,88
256,-0.010001083836,4412,88
257,0.0100080026314,3518,88
258,0.010020615533,3519,88
259,0.0100582521409,3520,88
260,0.0100831724703,3521,88
261,0.010095580481,3522,88
262,0.0101079540327,3523,88
263,0.010144864209,3524,88
264,0.0101692918688,3525,88
265,0.0101814512163,3526,88
266,0.0102056600153,3527,88
267,0.010241696611,3528,88
268,0.0102655319497,3529,88
269,0.0102892145514,3530,88
270,0.0103127416223,3531,88
271,0.0103361131623,3532,88
272,0.0103593263775,3533,88
273,0.0103823784739,3534,88
274,0.0104052694514,3535,88
275,0.0104279955849,3536,88
276,0.0104392971843,3537,88
277,0.010461772792,3538,88
278,0.0104729486629,3539,88
279,0.0104951718822,3540,88
280,0.0105281835422,3541,88
281,0.0105499746278,3542,88
282,0.0105715896934,3543,88
283,0.0105930268764,3544,88
284,0.0106142852455,3545,88
285,0.0106248464435,3546,88
286,0.01065625716,3547,88
287,0.0106666358188,3548,88
288,0.0106872553006,3549,88
289,0.0107076875865,3550,88
290,0.0107279326767,3551,88
291,0.010747987777,3552,88
292,0.0107678528875,3553,88
293,0.0107875261456,3554,88
294,0.0107972901314,3555,88
295,0.0108262896538,3556,88
296,0.0108453780413,3557,88
297,0.010864268057,3558,88
298,0.0108829606324,3559,88
299,0.0109014520422,3560,88
300,0.0109197422862,3561,88
301,0.0109378285706,3562,88
302,0.0109557118267,3563,88
303,0.0109733883291,3564,88
304,0.0109908590093,3565,88
305,0.0110081210732,3566,88
306,0.0110166743398,3567,88
307,0.0110336206853,3568,88
308,0.0110503556207,3569,88
309,0.0110586434603,3570,88
310,0.0110831856728,3571,88
311,0.0110992770642,3572,88
312,0.0111151505262,3573,88
313,0.0111308051273,3574,88
314,0.0111385490745,3575,88
315,0.011161448434,3576,88
316,0.0111689697951,3577,88
317,0.0111838439479,3578,88
318,0.0112057309598,3579,88
319,0.0112200360745,3580,88
320,0.0112341102213,3581,88
321,0.0112410606816,3582,88
322,0.0112479534,3583,88
323,0.0112682785839,3584,88
324,0.0112749347463,3585,88
325,0.0112880701199,3586,88
326,0.0113073242828,3587,88
327,0.0113198570907,3588,88
328,0.0113321449608,3589,88
329,0.0113441869617,3590,88
330,0.0113501157612,3591,88
331,0.011367527768,3592,88
332,0.0113788209856,3593,88
333,0.0113898618147,3594,88
334,0.0114006474614,3595,88
335,0.0114111760631,3596,88
336,0.0114163430408,3597,88
337,0.011426483281,3598,88
338,0.0114363618195,3599,88
339,0.0114459758624,3600,88
340,0.0114553254098,3601,88
341,0.0114599000663,3602,88
342,0.0114688482136,3603,88
343,0.0114817656577,3604,88
344,0.0114900385961,3605,88
345,0.011498038657,3606,88
346,0.0115057649091,3607,88
347,0.0115095246583,3608,88
348,0.0115203903988,3609,88
349,0.0115272877738,3610,88
350,0.0115339066833,3611,88
351,0.011537110433,3612,88
352,0.0115402443334,3613,88
353,0.0115463016555,3614,88
354,0.0115548605099,3615,88
355,0.0115575715899,3616,88
356,0.0115652820095,3617,88
357,0.0115677108988,3618,88
358,0.0115723544732,3619,88
359,0.0115787880495,3620,88
360,0.0115827219561,3621,88
361,0.0115863708779,3622,88
362,0.0115897366777,3623,88
363,0.0115928174928,3624,88
364,0.0115942517295,3625,88
365,0.0115981269628,3626,88
366,0.0115992771462,3627,88
367,0.0116013651714,3628,88
368,0.0116031700745,3629,88
369,0.0116046937183,3630,88
370,0.0116053493693,3631,88
371,0.0116068962961,3632,88
372,0.0116075770929,3633,88
373,0.0116078127176,3634,88
374,0.0116081032902,3635,88
375,0.0116079505533,3636,88
376,0.0116075212136,3637,88
377,0.0116072036326,3638,88
378,0.011605839245,3639,88
379,0.0116045884788,3640,88
380,0.011603067629,3641,88
381,0.0116012757644,3642,88
382,0.0116002783179,3643,88
383,0.0115980831906,3644,88
384,0.0115956207737,3645,88
385,0.0115928919986,3646,88
386,0.0115914279595,3647,88
387,0.0115883015096,3648,88
388,0.0115831196308,3649,88
389,0.0115793384612,3650,88
390,0.0115752946585,3651,88
391,0.0115709928796,3652,88
392,0.0115687446669,3653,88
393,0.0115616144612,3654,88
394,0.0115591092035,3655,88
395,0.0115512106568,3656,88
396,0.0115456264466,3657,88
397,0.0115427393466,3658,88
398,0.0115367732942,3659,88
399,0.0115305539221,3660,88
400,0.0115240821615,3661,88
401,0.0115173589438,3662,88
402,0.0115103833377,3663,88
403,0.0115031572059,3664,88
404,0.0114994496107,3665,88
405,0.0114879524335,3666,88
406,0.0114799747244,3667,88
407,0.0114717464894,3668,88
408,0.01146326866,3669,88
409,0.0114545412362,3670,88
410,0.0114500839263,3671,88
411,0.0114409802482,3672,88
412,0.0114316269755,3673,88
413,0.0114220231771,3674,88
414,0.0114171272144,3675,88
415,0.011407148093,3676,88
416,0.0113917086273,3677,88
417,0.0113864364102,3678,88
418,0.011370244436,3679,88
419,0.0113591356203,3680,88
420,0.0113477762789,3681,88
421,0.0113361654803,3682,88
422,0.0113302664831,3683,88
423,0.0113182784989,3684,88
424,0.0112998243421,3685,88
425,0.0112872067839,3686,88
426,0.0112808039412,3687,88
427,0.0112678101286,3688,88
428,0.0112612182274,3689,88
429,0.0112410662696,3690,88
430,0.0112273180857,3691,88
431,0.0112203499302,3692,88
432,0.011199071072,3693,88
433,0.0111845731735,3694,88
434,0.0111772315577,3695,88
435,0.0111548323184,3696,88
436,0.0111395902932,3697,88
437,0.0111241042614,3698,88
438,0.0111162690446,3699,88
439,0.011092399247,3700,88
440,0.0110761830583,3701,88
441,0.0110597265884,3702,88
442,0.0110514089465,3703,88
443,0.0110430317,3704,88
444,0.0110175460577,3705,88
445,0.0110002635047,3706,88
446,0.0109827499837,3707,88
447,0.0109650073573,3708,88
448,0.0109470374882,3709,88
449,0.010928845033,3710,88
450,0.0109196649864,3711,88
451,0.0109011419117,3712,88
452,0.0108824027702,3713,88
453,0.0108538940549,3714,88
454,0.0108442865312,3715,88
455,0.0108151547611,3716,88
456,0.0108053432778,3717,88
457,0.0107855703682,3718,88
458,0.0107656009495,3719,88
459,0.0107454387471,3720,88
460,0.0107250874862,3721,88
461,0.0107045518234,3722,88
462,0.0106838354841,3723,88
463,0.0106629431248,3724,88
464,0.0106418766081,3725,88
465,0.0106206415221,3726,88
466,0.010599241592,3727,88
467,0.0105776824057,3728,88
468,0.0105668446049,3729,88
469,0.0105341002345,3730,88
470,0.0105120847002,3731,88
471,0.0104899266735,3732,88
472,0.0104787945747,3733,88
473,0.0104564279318,3734,88
474,0.0104339281097,3735,88
475,0.0104112997651,3736,88
476,0.0103999376297,3737,88
477,0.0103656696156,3738,88
478,0.0103426761925,3739,88
479,0.0103311361745,3740,88
480,0.010296350345,3741,88
481,0.0102730263025,3742,88
482,0.0102495988831,3743,88
483,0.0102260718122,3744,88
484,0.0102024469525,3745,88
485,0.0101787298918,3746,88
486,0.0101668369025,3747,88
487,0.0101310238242,3748,88
488,0.0101190432906,3749,88
489,0.0100950198248,3750,88
490,0.0100709144026,3751,88
491,0.0100588314235,3752,88
492,0.0100224679336,3753,88
493,0.0100103085861,3754,88
494,-0.0100271245465,4084,88
495,-0.0100451884791,4085,88
496,-0.0100983101875,4086,88
497,-0.0101328315213,4087,88
498,-0.0101666375995,4088,88
499,-0.0101997274905,4089,88
500,-0.0102321011946,4090,88
501,-0.0102637587115,4091,88
502,-0.0102793183178,4092,88
503,-0.0103099001572,4093,88
504,-0.0103544313461,4094,88
505,-0.0103832241148,4095,88
0,-0.0100058233365,4125,89
1,-0.0100238965824,4126,89
2,-0.0100327776745,4127,89
3,-0.0100502306595,4128,89
4,-0.0100588006899,4129,89
5,-0.0100756278262,4130,89
6,-0.0101000806317,4131,89
7,-0.0101158553734,4132,89
8,-0.0101312045008,4133,89
9,-0.0101461270824,4134,89
10,-0.0101606212556,4135,89
11,-0.0101746832952,4136,89
12,-0.0101883113384,4137,89
13,-0.0101949628443,4138,89
14,-0.010214259848,4139,89
15,-0.0102265728638,4140,89
16,-0.0102384444326,4141,89
17,-0.0102442121133,4142,89
18,-0.0102554140612,4143,89
19,-0.010266165249,4144,89
20,-0.0102764656767,4145,89
21,-0.0102863134816,4146,89
22,-0.0102957049385,4147,89
23,-0.0103046372533,4148,89
24,-0.0103131057695,4149,89
25,-0.010321110487,4150,89
26,-0.0103286495432,4151,89
27,-0.010332243517,4152,89
28,-0.0103423185647,4153,89
29,-0.0103484448045,4154,89
30,-0.0103513300419,4155,89
31,-0.0103592677042,4156,89
32,-0.0103616733104,4157,89
33,-0.010366124101,4158,89
34,-0.0103700924665,4159,89
35,-0.0103735765442,4160,89
36,-0.0103765735403,4161,89
37,-0.0103778885677,4162,89
38,-0.010381102562,4163,89
39,-0.0103819286451,4164,89
40,-0.010383666493,4165,89
41,-0.0103842103854,4166,89
42,-0.0103842597455,4167,89
43,-0.0103838155046,4168,89
44,-0.0103828776628,4169,89
45,-0.010382222943,4170,89
46,-0.0103795165196,4171,89
47,-0.0103783681989,4172,89
48,-0.0103770969436,4173,89
49,-0.0103741828352,4174,89
50,-0.0103707788512,4175,89
51,-0.0103647522628,4176,89
52,-0.0103624984622,4177,89
53,-0.0103550124913,4178,89
54,-0.0103494180366,4179,89
55,-0.0103433458135,4180,89
56,-0.0103367967531,4181,89
57,-0.0103297783062,4182,89
58,-0.0103222923353,4183,89
59,-0.0103183770552,4184,89
60,-0.0103059420362,4185,89
61,-0.0102970879525,4186,89
62,-0.0102924946696,4187,89
63,-0.0102877914906,4188,89
64,-0.0102730281651,4189,89
65,-0.0102626541629,4190,89
66,-0.0102518638596,4191,89
67,-0.010240665637,4192,89
68,-0.0102290697396,4193,89
69,-0.0102231269702,4194,89
70,-0.0102047258988,4195,89
71,-0.0101920003071,4196,89
72,-0.0101789189503,4197,89
73,-0.010165498592,4198,89
74,-0.0101586636156,4199,89
75,-0.0101447561756,4200,89
76,-0.0101233189926,4201,89
77,-0.0101160295308,4202,89
78,-0.0101086702198,4203,89
79,-0.0100861946121,4204,89
80,-0.0100785763934,4205,89
81,-0.0100553771481,4206,89
82,-0.0100475363433,4207,89
83,-0.0100317038596,4208,89
84,-0.0100076170638,4209,89
85,-0.0100111477077,4295,89
86,-0.010024016723,4296,89
87,-0.0100629897788,4297,89
88,-0.0100760888308,4298,89
89,-0.0101156439632,4299,89
90,-0.0101421847939,4300,89
91,-0.0101688196883,4301,89
92,-0.010195507668,4302,89
93,-0.0102222133428,4303,89
94,-0.0102355601266,4304,89
95,-0.010275519453,4305,89
96,-0.0102887963876,4306,89
97,-0.0103284325451,4307,89
98,-0.010341563262,4308,89
99,-0.0103676738217,4309,89
100,-0.0103935515508,4310,89
101,-0.0104191573337,4311,89
102,-0.0104444557801,4312,89
103,-0.0104694087058,4313,89
104,-0.0104939797893,4314,89
105,-0.0105181317776,4315,89
106,-0.0105300396681,4316,89
107,-0.0105650378391,4317,89
108,-0.010576447472,4318,89
109,-0.0106098493561,4319,89
110,-0.0106313861907,4320,89
111,-0.0106419250369,4321,89
112,-0.0106625184417,4322,89
113,-0.0106824450195,4323,89
114,-0.0107016758993,4324,89
115,-0.0107110226527,4325,89
116,-0.0107379388064,4326,89
117,-0.0107465274632,4327,89
118,-0.0107710976154,4328,89
119,-0.0107864541933,4329,89
120,-0.0108009660617,4330,89
121,-0.0108146127313,4331,89
122,-0.0108211059123,4332,89
123,-0.0108334217221,4333,89
124,-0.0108501855284,4334,89
125,-0.010860202834,4335,89
126,-0.0108692785725,4336,89
127,-0.0108734583482,4337,89
128,-0.0108845578507,4338,89
129,-0.0108877746388,4339,89
130,-0.0108934752643,4340,89
131,-0.0108981970698,4341,89
132,-0.0109019344673,4342,89
133,-0.0109046893194,4343,89
134,-0.0109064588323,4344,89
135,-0.0109072420746,4345,89
136,-0.0109070464969,4346,89
137,-0.0109058730304,4347,89
138,-0.0109037272632,4348,89
139,-0.0109022939578,4349,89
140,-0.0108965542167,4350,89
141,-0.0108915437013,4351,89
142,-0.0108856000006,4352,89
143,-0.0108822826296,4353,89
144,-0.0108749633655,4354,89
145,-0.0108667453751,4355,89
146,-0.0108576454222,4356,89
147,-0.0108527699485,4357,89
148,-0.0108368704095,4358,89
149,-0.0108252316713,4359,89
150,-0.0108127873391,4360,89
151,-0.0108062680811,4361,89
152,-0.0107926568016,4362,89
153,-0.0107782939449,4363,89
154,-0.010755399242,4364,89
155,-0.0107392696664,4365,89
156,-0.0107224779204,4366,89
157,-0.010705050081,4367,89
158,-0.0106961065903,4368,89
159,-0.0106777753681,4369,89
160,-0.0106588769704,4370,89
161,-0.0106492247432,4371,89
162,-0.0106295291334,4372,89
163,-0.0105990609154,4373,89
164,-0.0105781750754,4374,89
165,-0.0105568682775,4375,89
166,-0.0105351647362,4376,89
167,-0.0105130951852,4377,89
168,-0.0104906884953,4378,89
169,-0.0104793692008,4379,89
170,-0.0104449801147,4380,89
171,-0.0104333879426,4381,89
172,-0.0103982686996,4382,89
173,-0.0103746047243,4383,89
174,-0.0103627089411,4384,89
175,-0.0103388046846,4385,89
176,-0.0103147709742,4386,89
177,-0.0103027150035,4387,89
178,-0.010266425088,4388,89
179,-0.0102542983368,4389,89
180,-0.010217868723,4390,89
181,-0.010193570517,4391,89
182,-0.0101692909375,4392,89
183,-0.0101450504735,4393,89
184,-0.0101208686829,4394,89
185,-0.0101088061929,4395,89
186,-0.0100727640092,4396,89
187,-0.0100488755852,4397,89
188,-0.0100251203403,4398,89
189,-0.0100132972002,4399,89
190,-0.010001514107,4400,89
191,0.0100015494972,3530,89
192,0.0100209824741,3531,89
193,0.010040150024,3532,89
194,0.0100496346131,3533,89
195,0.0100776879117,3534,89
196,0.0100960591808,3535,89
197,0.0101141640916,3536,89
198,0.0101231187582,3537,89
199,0.0101408269256,3538,89
200,0.0101582715288,3539,89
