,amplitude,tstep,vfp
0,-0.0100537864491,5030,88
1,-0.0101134842262,5031,88
2,-0.0101731084287,5032,88
3,-0.0102326544002,5033,88
4,-0.0102623980492,5034,88
5,-0.0102921212092,5035,88
6,-0.0103811696172,5036,88
7,-0.0104404296726,5037,88
8,-0.010499603115,5038,88
9,-0.0105586871505,5039,88
10,-0.0105881951749,5040,88
11,-0.0106471404433,5041,88
12,-0.0107353813946,5042,88
13,-0.0107940863818,5043,88
14,-0.0108234016225,5044,88
15,-0.0109111946076,5045,88
16,-0.0109695931897,5046,88
17,-0.0109987528995,5047,88
18,-0.0110860671848,5048,88
19,-0.0111151169986,5049,88
20,-0.011173132807,5050,88
21,-0.0112310331315,5051,88
22,-0.0112888170406,5052,88
23,-0.0113176647574,5053,88
24,-0.0113752707839,5054,88
25,-0.0114327548072,5055,88
26,-0.0115187484771,5056,88
27,-0.0115473503247,5057,88
28,-0.0116329621524,5058,88
29,-0.0116898743436,5059,88
30,-0.0117466533557,5060,88
31,-0.0117749925703,5061,88
32,-0.0118315704167,5062,88
33,-0.0118880113587,5063,88
34,-0.0119443126023,5064,88
35,-0.0120004741475,5065,88
36,-0.0120564932004,5066,88
37,-0.0121123678982,5067,88
38,-0.0121680973098,5068,88
39,-0.0122236795723,5069,88
40,-0.0122791137546,5070,88
41,-0.012334397994,5071,88
42,-0.0123619837686,5072,88
43,-0.0124170407653,5073,88
44,-0.0124993380159,5074,88
45,-0.0125266928226,5075,88
46,-0.0126085206866,5076,88
47,-0.012662875466,5077,88
48,-0.0126899927855,5078,88
49,-0.0127441072837,5079,88
50,-0.0127980615944,5080,88
51,-0.0128249777481,5081,88
52,-0.0129054812714,5082,88
53,-0.0129589447752,5083,88
54,-0.0129856141284,5084,88
55,-0.0130653725937,5085,88
56,-0.0130918743089,5086,88
57,-0.013171127066,5087,88
58,-0.0132237495854,5088,88
59,-0.0132762007415,5089,88
60,-0.0133023615927,5090,88
61,-0.013380584307,5091,88
62,-0.0134325157851,5092,88
63,-0.0134842703119,5093,88
64,-0.0135358488187,5094,88
65,-0.0135615710169,5095,88
66,-0.0136128831655,5096,88
67,-0.0136640165001,5097,88
68,-0.0136895151809,5098,88
69,-0.0137657402083,5099,88
70,-0.0138163305819,5100,88
71,-0.0138667365536,5101,88
72,-0.0139169590548,5102,88
73,-0.0139420004562,5103,88
74,-0.0140168452635,5104,88
75,-0.0140417013317,5105,88
76,-0.0140912719071,5106,88
77,-0.014140653424,5107,88
78,-0.0142143703997,5108,88
79,-0.0142632760108,5109,88
80,-0.0142876571044,5110,88
81,-0.0143362730742,5111,88
82,-0.0143846953288,5112,88
83,-0.0144329238683,5113,88
84,-0.0144809549674,5114,88
85,-0.0145287895575,5115,88
86,-0.0145526323467,5116,88
87,-0.0146238626912,5117,88
88,-0.0146710993722,5118,88
89,-0.0147181348875,5119,88
90,-0.0147649673745,5120,88
91,-0.0147883081809,5121,88
92,-0.0148348361254,5122,88
93,-0.0149042420089,5123,88
94,-0.014950254932,5124,88
95,-0.0149731840938,5125,88
96,-0.0150188859552,5126,88
97,-0.0150643773377,5127,88
98,-0.0151096591726,5128,88
99,-0.0151547305286,5129,88
100,-0.015199589543,5130,88
101,-0.0152442352846,5131,88
102,-0.0152664780617,5132,88
103,-0.0153108034283,5133,88
104,-0.0153768882155,5134,88
105,-0.0153988078237,5135,88
106,-0.0154424840584,5136,88
107,-0.0154859423637,5137,88
108,-0.0155507186428,5138,88
109,-0.0155722014606,5139,88
110,-0.0156150003895,5140,88
111,-0.0156363174319,5141,88
112,-0.0156999342144,5142,88
113,-0.015721026808,5143,88
114,-0.0157839749008,5144,88
115,-0.015825657174,5145,88
116,-0.0158671159297,5146,88
117,-0.0158877596259,5147,88
118,-0.0159493535757,5148,88
119,-0.0159901361912,5149,88
120,-0.0160306878388,5150,88
121,-0.0160710122436,5151,88
122,-0.0161111056805,5152,88
123,-0.0161509700119,5153,88
124,-0.0161906052381,5154,88
125,-0.0162103362381,5155,88
126,-0.0162300094962,5156,88
127,-0.0162691827863,5157,88
128,-0.0163275059313,5158,88
129,-0.0163660943508,5159,88
130,-0.0163853000849,5160,88
131,-0.0164235364646,5161,88
132,-0.0164615381509,5162,88
133,-0.016499305144,5163,88
134,-0.0165555141866,5164,88
135,-0.0165926888585,5165,88
136,-0.0166111867875,5166,88
137,-0.0166663192213,5167,88
138,-0.016684576869,5168,88
139,-0.0167209114879,5169,88
140,-0.016757003963,5170,88
141,-0.0167928542942,5171,88
142,-0.0168106872588,5172,88
143,-0.0168638210744,5173,88
144,-0.0168814100325,5174,88
145,-0.0169164016843,5175,88
146,-0.0169511456043,5176,88
147,-0.0169856417924,5177,88
148,-0.0170369166881,5178,88
149,-0.0170538816601,5179,88
150,-0.0171043965966,5180,88
151,-0.0171377547085,5181,88
152,-0.0171708576381,5182,88
153,-0.01720370166,5183,88
154,-0.0172200258821,5184,88
155,-0.0172686055303,5185,88
156,-0.0172846671194,5186,88
157,-0.0173165909946,5187,88
158,-0.0173324551433,5188,88
159,-0.0173796433955,5189,88
160,-0.0173952374607,5190,88
161,-0.0174416080117,5191,88
162,-0.0174721796066,5192,88
163,-0.0175024718046,5193,88
164,-0.0175324846059,5194,88
165,-0.0175622142851,5195,88
166,-0.0175769720227,5196,88
167,-0.0176208186895,5197,88
168,-0.0176496878266,5198,88
169,-0.0176782626659,5199,88
170,-0.0177065450698,5200,88
171,-0.0177205745131,5201,88
172,-0.0177484061569,5202,88
173,-0.0177622102201,5203,88
174,-0.0178031604737,5204,88
175,-0.0178300775588,5205,88
176,-0.0178566817194,5206,88
177,-0.0178829729557,5207,88
178,-0.0179089456797,5208,88
179,-0.0179345998913,5209,88
180,-0.01795992814,5210,88
181,-0.0179724711925,5211,88
182,-0.0179973095655,5212,88
183,-0.018033945933,5213,88
184,-0.0180459916592,5214,88
185,-0.0180816166103,5215,88
186,-0.0180933214724,5216,88
187,-0.018116472289,5217,88
188,-0.0181392766535,5218,88
189,-0.0181505475193,5219,88
190,-0.0181838329881,5220,88
191,-0.0181947499514,5221,88
192,-0.0182269681245,5222,88
193,-0.0182479955256,5223,88
194,-0.0182686578482,5224,88
195,-0.0182889532298,5225,88
196,-0.0182989612222,5226,88
197,-0.0183187015355,5227,88
198,-0.0183380655944,5228,88
199,-0.0183570552617,5229,88
200,-0.0183848235756,5230,88
201,-0.0183938890696,5231,88
202,-0.0184117313474,5232,88
203,-0.0184205081314,5233,88
204,-0.0184462554753,5234,88
205,-0.0184629335999,5235,88
206,-0.0184792149812,5236,88
207,-0.0184872094542,5237,88
208,-0.0185105931014,5238,88
209,-0.0185256842524,5239,88
210,-0.0185330808163,5240,88
211,-0.0185475684702,5241,88
212,-0.0185616537929,5242,88
213,-0.0185820236802,5243,88
214,-0.0185950957239,5244,88
215,-0.0186014771461,5245,88
216,-0.0186139363796,5246,88
217,-0.018625985831,5247,88
218,-0.0186318550259,5248,88
219,-0.0186432879418,5249,88
220,-0.0186596605927,5250,88
221,-0.018664913252,5251,88
222,-0.0186751056463,5252,88
223,-0.0186848845333,5253,88
224,-0.0186987705529,5254,88
225,-0.0187075100839,5255,88
226,-0.0187117233872,5256,88
227,-0.0187237374485,5257,88
228,-0.0187275335193,5258,88
229,-0.0187382921576,5259,88
230,-0.0187449418008,5260,88
231,-0.0187481101602,5261,88
232,-0.0187511742115,5262,88
233,-0.0187569912523,5263,88
234,-0.0187649372965,5264,88
235,-0.0187673773617,5265,88
236,-0.0187719445676,5266,88
237,-0.0187780130655,5267,88
238,-0.0187798272818,5268,88
239,-0.0187846440822,5269,88
240,-0.0187873337418,5270,88
241,-0.0187896080315,5271,88
242,-0.0187914669514,5272,88
243,-0.0187929086387,5273,88
244,-0.0187939368188,5274,88
245,-0.0187945477664,5275,88
246,-0.0187946986407,5276,88
247,-0.0187946874648,5277,88
248,-0.0187942627817,5278,88
249,-0.018793893978,5279,88
250,-0.0187921747565,5280,88
251,-0.0187913943082,5281,88
252,-0.0187884345651,5282,88
253,-0.0187859442085,5283,88
254,-0.0187830403447,5284,88
255,-0.0187814347446,5285,88
256,-0.0187779124826,5286,88
257,-0.0187739785761,5287,88
258,-0.0187673047185,5288,88
259,-0.0187623407692,5289,88
260,-0.0187569651753,5290,88
261,-0.0187511779368,5291,88
262,-0.0187481287867,5292,88
263,-0.0187449771911,5293,88
264,-0.0187349002808,5294,88
265,-0.0187276676297,5295,88
266,-0.018720023334,5296,88
267,-0.0187119636685,5297,88
268,-0.018703488633,5298,88
269,-0.0186946000904,5299,88
270,-0.0186852980405,5300,88
271,-0.0186755806208,5301,88
272,-0.0186654478312,5302,88
273,-0.0186548959464,5303,88
274,-0.0186439249665,5304,88
275,-0.0186382830143,5305,88
276,-0.0186266861856,5306,88
277,-0.0186146721244,5307,88
278,-0.0186022371054,5308,88
279,-0.0185958631337,5309,88
280,-0.0185827985406,5310,88
281,-0.0185624100268,5311,88
282,-0.0185482874513,5312,88
283,-0.018541065976,5313,88
284,-0.0185187645257,5314,88
285,-0.0185033641756,5315,88
286,-0.018495503813,5316,88
287,-0.0184712819755,5317,88
288,-0.0184545982629,5318,88
289,-0.0184374842793,5319,88
290,-0.018419938162,5320,88
291,-0.018401959911,5321,88
292,-0.0183928087354,5322,88
293,-0.0183741804212,5323,88
294,-0.0183647032827,5324,88
295,-0.0183356236666,5325,88
296,-0.0183156915009,5326,88
297,-0.0182953216136,5327,88
298,-0.0182849727571,5328,88
299,-0.018253268674,5329,88
300,-0.0182315837592,5330,88
301,-0.018220577389,5331,88
302,-0.0181868951768,5332,88
303,-0.0181754492223,5333,88
304,-0.0181404463947,5334,88
305,-0.0181285571307,5335,88
306,-0.0180922299623,5336,88
307,-0.0180799011141,5337,88
308,-0.0180549100041,5338,88
309,-0.0180294774473,5339,88
310,-0.0180036015809,5340,88
311,-0.0179904978722,5341,88
312,-0.0179505236447,5342,88
313,-0.0179233197123,5343,88
314,-0.0178956761956,5344,88
315,-0.0178816877306,5345,88
316,-0.0178390648216,5346,88
317,-0.0178101025522,5347,88
318,-0.0177806988358,5348,88
319,-0.0177508573979,5349,88
320,-0.0177357736975,5350,88
321,-0.0176898632199,5351,88
322,-0.0176743436605,5352,88
323,-0.0176429767162,5353,88
324,-0.0176111776382,5354,88
325,-0.0175789445639,5355,88
326,-0.0175462812185,5356,88
327,-0.0175131913275,5357,88
328,-0.0174964852631,5358,88
329,-0.0174627546221,5359,88
330,-0.0174113623798,5360,88
331,-0.0173765737563,5361,88
332,-0.0173413641751,5362,88
333,-0.0173236038536,5363,88
334,-0.0172877684236,5364,88
335,-0.0172332413495,5365,88
336,-0.0171963758767,5366,88
337,-0.0171777885407,5367,88
338,-0.0171403121203,5368,88
339,-0.0171214211732,5369,88
340,-0.0170641466975,5370,88
341,-0.0170254632831,5371,88
342,-0.0169863831252,5372,88
343,-0.0169666968286,5373,88
344,-0.0169270280749,5374,88
345,-0.0168667957187,5375,88
346,-0.0168465245515,5376,88
347,-0.016785139218,5377,88
348,-0.0167644862086,5378,88
349,-0.0167019646615,5379,88
350,-0.0166809372604,5380,88
351,-0.0166386011988,5381,88
352,-0.0165958963335,5382,88
353,-0.0165528282523,5383,88
354,-0.0165093969554,5384,88
355,-0.0164875462651,5385,88
356,-0.0164435766637,5386,88
357,-0.0163769628853,5387,88
358,-0.0163321141154,5388,88
359,-0.0163095593452,5389,88
360,-0.0162641964853,5390,88
361,-0.0161955114454,5391,88
362,-0.0161492973566,5392,88
363,-0.0161260664463,5393,88
364,-0.0160558782518,5394,88
365,-0.0160086769611,5395,88
366,-0.0159611515701,5396,88
367,-0.0159133058041,5397,88
368,-0.0158892646432,5398,88
369,-0.0158651433885,5399,88
370,-0.0158166661859,5400,88
0,-0.0100116217509,5032,89
1,-0.0100700343028,5033,89
2,-0.0100992210209,5034,89
3,-0.0101575516164,5035,89
4,-0.0101866954938,5036,89
5,-0.0102740405127,5037,89
6,-0.0103321941569,5038,89
7,-0.0103902872652,5039,89
8,-0.0104483161122,5040,89
9,-0.0104773072526,5041,89
10,-0.0105641782284,5042,89
11,-0.0105931023136,5043,89
12,-0.0106797656044,5044,89
13,-0.010737452656,5045,89
14,-0.0107950652018,5046,89
15,-0.0108526013792,5047,89
16,-0.0108813401312,5048,89
17,-0.0109387589619,5049,89
18,-0.0109960976988,5050,89
19,-0.0110247367993,5051,89
20,-0.0111105255783,5052,89
21,-0.0111676119268,5053,89
22,-0.0112246088684,5054,89
23,-0.011281516403,5055,89
24,-0.0113383317366,5056,89
25,-0.0113950530067,5057,89
26,-0.0114233773202,5058,89
27,-0.0115082012489,5059,89
28,-0.0115646263584,5060,89
29,-0.011592800729,5061,89
30,-0.0116771645844,5062,89
31,-0.0117332749069,5063,89
32,-0.0117892753333,5064,89
33,-0.0118172327057,5065,89
34,-0.0118730645627,5066,89
35,-0.0119287809357,5067,89
36,-0.0119843808934,5068,89
37,-0.0120398607105,5069,89
38,-0.0120952185243,5070,89
39,-0.0121504534036,5071,89
40,-0.0121780224144,5072,89
41,-0.0122605403885,5073,89
42,-0.0123153869063,5074,89
43,-0.0123427612707,5075,89
44,-0.012424679473,5076,89
45,-0.0124519169331,5077,89
46,-0.0125334179029,5078,89
47,-0.0125605138019,5079,89
48,-0.0126145984977,5080,89
49,-0.012668536976,5081,89
50,-0.01272232458,5082,89
51,-0.012775962241,5083,89
52,-0.0128294443712,5084,89
53,-0.0128827709705,5085,89
54,-0.0129359392449,5086,89
55,-0.0129889473319,5087,89
56,-0.0130417905748,5088,89
57,-0.0130944689736,5089,89
58,-0.0131469806656,5090,89
59,-0.0131993209943,5091,89
60,-0.0132514890283,5092,89
61,-0.0133034819737,5093,89
62,-0.0133552988991,5094,89
63,-0.0133811393753,5095,89
64,-0.0134326871485,5096,89
65,-0.0134840505198,5097,89
66,-0.0135352332145,5098,89
67,-0.0135862259194,5099,89
68,-0.0136370304972,5100,89
69,-0.0136623615399,5101,89
70,-0.0137128792703,5102,89
71,-0.0137882912531,5103,89
72,-0.0138133317232,5104,89
73,-0.0138632617891,5105,89
74,-0.0139377824962,5106,89
75,-0.0139625212178,5107,89
76,-0.0140118477866,5108,89
77,-0.014085451141,5109,89
78,-0.0141098825261,5110,89
79,-0.0141585879028,5111,89
80,-0.0142070828006,5112,89
81,-0.0142312515527,5113,89
82,-0.0143034365028,5114,89
83,-0.0143512897193,5115,89
84,-0.0143751353025,5116,89
85,-0.0144463470206,5117,89
86,-0.0144935464486,5118,89
87,-0.0145170623437,5119,89
88,-0.0145872775465,5120,89
89,-0.0146338092163,5121,89
90,-0.0146569898352,5122,89
91,-0.0147031825036,5123,89
92,-0.0147720435634,5124,89
93,-0.0147948833182,5125,89
94,-0.0148403896019,5126,89
95,-0.0148856630549,5127,89
96,-0.0149307046086,5128,89
97,-0.0149531383067,5129,89
98,-0.01502008643,5130,89
99,-0.0150422826409,5131,89
100,-0.0150865009055,5132,89
101,-0.0151304807514,5133,89
102,-0.0151960002258,5134,89
103,-0.0152393812314,5135,89
104,-0.0152825172991,5136,89
105,-0.0153039954603,5137,89
106,-0.0153467645869,5138,89
107,-0.015410461463,5139,89
108,-0.0154315698892,5140,89
109,-0.0154735995457,5141,89
110,-0.0154945226386,5142,89
111,-0.0155569147319,5143,89
112,-0.0155981965363,5144,89
113,-0.0156187424436,5145,89
114,-0.015679994598,5146,89
115,-0.0157205145806,5147,89
116,-0.015740679577,5148,89
117,-0.0157808121294,5149,89
118,-0.0158405266702,5150,89
119,-0.0158602986485,5151,89
120,-0.0158996507525,5152,89
121,-0.0159581881016,5153,89
122,-0.0159968789667,5154,89
123,-0.016016125679,5155,89
124,-0.016054417938,5156,89
125,-0.0160924401134,5157,89
126,-0.0161301903427,5158,89
127,-0.0161489620805,5159,89
128,-0.0162048712373,5160,89
129,-0.0162233691663,5161,89
130,-0.016278449446,5162,89
131,-0.0162966679782,5163,89
132,-0.0163509063423,5164,89
133,-0.0163688454777,5165,89
134,-0.016422232613,5166,89
135,-0.0164574664086,5167,89
136,-0.016474975273,5168,89
137,-0.016527062282,5169,89
138,-0.0165614206344,5170,89
139,-0.0165784899145,5171,89
140,-0.0166124049574,5172,89
141,-0.0166292488575,5173,89
142,-0.0166793297976,5174,89
143,-0.0167123414576,5175,89
144,-0.0167450439185,5176,89
145,-0.0167612805963,5177,89
146,-0.0168095249683,5178,89
147,-0.0168413016945,5179,89
148,-0.0168727580458,5180,89
149,-0.0169038958848,5181,89
150,-0.016934717074,5182,89
151,-0.0169652123004,5183,89
152,-0.0169803388417,5184,89
153,-0.0170103479177,5185,89
154,-0.0170400273055,5186,89
155,-0.0170547422022,5187,89
156,-0.0170983895659,5188,89
157,-0.0171127710491,5189,89
158,-0.0171554069966,5190,89
159,-0.0171834044158,5191,89
160,-0.0172110553831,5192,89
161,-0.017238361761,5193,89
162,-0.0172518827021,5194,89
163,-0.0172919239849,5195,89
164,-0.0173181779683,5196,89
165,-0.0173440761864,5197,89
166,-0.0173696130514,5198,89
167,-0.0173822455108,5199,89
168,-0.0174196027219,5200,89
169,-0.0174318701029,5201,89
170,-0.0174440480769,5202,89
171,-0.0174800250679,5203,89
172,-0.0175035446882,5204,89
173,-0.0175266899168,5205,89
174,-0.0175494626164,5206,89
175,-0.0175607055426,5207,89
176,-0.0175829082727,5208,89
177,-0.0176154971123,5209,89
178,-0.0176367424428,5210,89
179,-0.0176575984806,5211,89
180,-0.0176780689508,5212,89
181,-0.0176981482655,5213,89
182,-0.0177178382874,5214,89
183,-0.0177275333554,5215,89
184,-0.0177466291934,5216,89
185,-0.0177560299635,5217,89
186,-0.0177836343646,5218,89
187,-0.0177926365286,5219,89
188,-0.0178103372455,5220,89
189,-0.0178361404687,5221,89
190,-0.0178528390825,5222,89
191,-0.0178691316396,5223,89
192,-0.0178850181401,5224,89
193,-0.0179004985839,5225,89
194,-0.0179155692458,5226,89
195,-0.0179302319884,5227,89
196,-0.0179374106228,5228,89
197,-0.0179583318532,5229,89
198,-0.0179717671126,5230,89
199,-0.0179783273488,5231,89
200,-0.0179911442101,5232,89
201,-0.0180035494268,5233,89
202,-0.0180155392736,5234,89
203,-0.0180271193385,5235,89
204,-0.0180382858962,5236,89
205,-0.0180437136441,5237,89
206,-0.0180542636663,5238,89
207,-0.0180693082511,5239,89
208,-0.0180788226426,5240,89
209,-0.0180834252387,5241,89
210,-0.018092321232,5242,89
211,-0.018100803718,5243,89
212,-0.018108876422,5244,89
213,-0.0181202087551,5245,89
214,-0.0181237831712,5246,89
215,-0.0181306190789,5247,89
216,-0.0181370470673,5248,89
217,-0.0181430671364,5249,89
218,-0.0181486736983,5250,89
219,-0.0181538742036,5251,89
220,-0.0181586686522,5252,89
221,-0.0181630570441,5253,89
222,-0.0181651003659,5254,89
223,-0.0181688778102,5255,89
224,-0.0181737914681,5256,89
225,-0.0181765630841,5257,89
226,-0.018178936094,5258,89
227,-0.0181809086353,5259,89
228,-0.0181824788451,5260,89
229,-0.0181831158698,5261,89
230,-0.0181836523116,5262,89
231,-0.0181846655905,5263,89
232,-0.0181848499924,5264,89
233,-0.0181846413761,5265,89
234,-0.0181840378791,5266,89
235,-0.0181830395013,5267,89
236,-0.0181823950261,5268,89
237,-0.0181798748672,5269,89
238,-0.0181777123362,5270,89
239,-0.0181751605123,5271,89
240,-0.0181737411767,5272,89
241,-0.018168900162,5273,89
242,-0.0181670952588,5274,89
243,-0.0181631986052,5275,89
244,-0.0181589201093,5276,89
245,-0.0181542597711,5277,89
246,-0.018149221316,5278,89
247,-0.0181465577334,5279,89
248,-0.0181409493089,5280,89
249,-0.01813496463,5281,89
250,-0.0181252751499,5282,89
251,-0.0181183498353,5283,89
252,-0.0181110501289,5284,89
253,-0.0181072577834,5285,89
254,-0.0180993974209,5286,89
255,-0.0180869046599,5287,89
256,-0.0180781111121,5288,89
257,-0.0180735737085,5289,89
258,-0.0180594101548,5290,89
259,-0.0180545039475,5291,89
260,-0.0180444158614,5292,89
261,-0.0180339571089,5293,89
262,-0.0180231295526,5294,89
263,-0.0180175770074,5295,89
264,-0.0180003680289,5296,89
265,-0.0179884359241,5297,89
266,-0.0179761331528,5298,89
267,-0.0179634653032,5299,89
268,-0.0179504305124,5300,89
269,-0.0179437752813,5301,89
270,-0.0179301891476,5302,89
271,-0.0179162323475,5303,89
272,-0.0179019141942,5304,89
273,-0.0178872253746,5305,89
274,-0.0178645066917,5306,89
275,-0.0178567487746,5307,89
276,-0.0178489014506,5308,89
277,-0.0178248044103,5309,89
278,-0.0178082808852,5310,89
279,-0.0177913866937,5311,89
280,-0.0177741274238,5312,89
281,-0.017765359953,5313,89
282,-0.01773850061,5314,89
283,-0.0177293661982,5315,89
284,-0.0177014041692,5316,89
285,-0.017691899091,5317,89
286,-0.0176628306508,5318,89
287,-0.0176429897547,5319,89
288,-0.0176329296082,5320,89
289,-0.0176125373691,5321,89
290,-0.0175917707384,5322,89
291,-0.0175812505186,5323,89
292,-0.0175491310656,5324,89
293,-0.0175382401794,5325,89
294,-0.0175161790103,5326,89
295,-0.0174823924899,5327,89
296,-0.0174594037235,5328,89
297,-0.0174360442907,5329,89
298,-0.0174123123288,5330,89
299,-0.0174003094435,5331,89
300,-0.017376024276,5332,89
301,-0.0173513647169,5333,89
302,-0.0173136815429,5334,89
303,-0.0172880943865,5335,89
304,-0.0172751620412,5336,89
305,-0.0172490198165,5337,89
306,-0.0172225087881,5338,89
307,-0.0171956252307,5339,89
308,-0.0171820446849,5340,89
309,-0.0171407479793,5341,89
310,-0.0171267949045,5342,89
311,-0.0170843880624,5343,89
312,-0.0170700661838,5344,89
313,-0.0170265473425,5345,89
314,-0.0169970747083,5346,89
315,-0.0169672351331,5347,89
316,-0.0169370248914,5348,89
317,-0.0169064514339,5349,89
318,-0.0168910250068,5350,89
319,-0.016844201833,5351,89
320,-0.0168284121901,5352,89
321,-0.0168125275522,5353,89
322,-0.0167804900557,5354,89
323,-0.016748091206,5355,89
324,-0.0166988093406,5356,89
325,-0.01666550152,5357,89
326,-0.0166318360716,5358,89
