,amplitude,tstep,vfp
0,-0.0100298132747,4906,88
1,-0.010081006214,4907,88
2,-0.0101321293041,4908,88
3,-0.0101576624438,4909,88
4,-0.0102341519669,4910,88
5,-0.0102596106008,4911,88
6,-0.0103358682245,4912,88
7,-0.0103612467647,4913,88
8,-0.0104119423777,4914,88
9,-0.0104372594506,4915,88
10,-0.010513080284,4916,88
11,-0.0105383098125,4917,88
12,-0.0106138652191,4918,88
13,-0.0106641184539,4919,88
14,-0.0107142776251,4920,88
15,-0.0107393208891,4921,88
16,-0.0108143035322,4922,88
17,-0.0108641674742,4923,88
18,-0.0109139261767,4924,88
19,-0.0109635824338,4925,88
20,-0.0110131306574,4926,88
21,-0.0110625708476,4927,88
22,-0.0111118992791,4928,88
23,-0.0111365215853,4929,88
24,-0.0111611159518,4930,88
25,-0.0112347267568,4931,88
26,-0.0112836556509,4932,88
27,-0.0113324653357,4933,88
28,-0.0113811558113,4934,88
29,-0.0114297233522,4935,88
30,-0.0114781698212,4936,88
31,-0.0115264896303,4937,88
32,-0.0115746837109,4938,88
33,-0.0116227511317,4939,88
34,-0.0116706881672,4940,88
35,-0.0116946082562,4941,88
36,-0.0117661692202,4942,88
37,-0.011813711375,4943,88
38,-0.0118374312297,4944,88
39,-0.011861118488,4945,88
40,-0.0119319744408,4946,88
41,-0.0119790406898,4947,88
42,-0.0120259681717,4948,88
43,-0.0120493797585,4949,88
44,-0.0121194049716,4950,88
45,-0.0121426759288,4951,88
46,-0.0122122745961,4952,88
47,-0.0122354021296,4953,88
48,-0.0123045686632,4954,88
49,-0.012350496836,4955,88
50,-0.0123962787911,4956,88
51,-0.0124419135973,4957,88
52,-0.0124873993918,4958,88
53,-0.0125100854784,4959,88
54,-0.0125553458929,4960,88
55,-0.0125779192895,4961,88
56,-0.0126454131678,4962,88
57,-0.0126902163029,4963,88
58,-0.0127348667011,4964,88
59,-0.0127793615684,4965,88
60,-0.0128236999735,4966,88
61,-0.0128678809851,4967,88
62,-0.012889912352,4968,88
63,-0.012933854945,4969,88
64,-0.0129776373506,4970,88
65,-0.0130430068821,4971,88
66,-0.0130863822997,4972,88
67,-0.0131295919418,4973,88
68,-0.0131511343643,4974,88
69,-0.0131940934807,4975,88
70,-0.0132368830964,4976,88
71,-0.0132795022801,4977,88
72,-0.0133007466793,4978,88
73,-0.013343106024,4979,88
74,-0.0134063148871,4980,88
75,-0.0134272957221,4981,88
76,-0.0134899672121,4982,88
77,-0.0135315200314,4983,88
78,-0.0135522270575,4984,88
79,-0.0135935023427,4985,88
80,-0.0136345876381,4986,88
81,-0.0136958565563,4987,88
82,-0.0137364603579,4988,88
83,-0.0137566877529,4989,88
84,-0.0137768648565,4990,88
85,-0.0138370962813,4991,88
86,-0.0138769950718,4992,88
87,-0.0139166861773,4993,88
88,-0.0139561640099,4994,88
89,-0.0139954276383,4995,88
90,-0.0140149788931,4996,88
91,-0.014073299244,4997,88
92,-0.0141118997708,4998,88
93,-0.0141502711922,4999,88
94,-0.0141884097829,5000,88
95,-0.0142263127491,5001,88
96,-0.0142639763653,5002,88
97,-0.0143013959751,5003,88
98,-0.0143200140446,5004,88
99,-0.0143385687843,5005,88
100,-0.0143938558176,5006,88
101,-0.0144303925335,5007,88
102,-0.0144666675478,5008,88
103,-0.0144847063348,5009,88
104,-0.0145205808803,5010,88
105,-0.0145738814026,5011,88
106,-0.0146090686321,5012,88
107,-0.0146265560761,5013,88
108,-0.014678590931,5014,88
109,-0.0147129185498,5015,88
110,-0.0147299719974,5016,88
111,-0.0147806843743,5017,88
112,-0.0148141141981,5018,88
113,-0.0148307140917,5019,88
114,-0.0148472366855,5020,88
115,-0.0148963332176,5021,88
116,-0.0149286687374,5022,88
117,-0.0149606829509,5023,88
118,-0.0149923702702,5024,88
119,-0.0150237288326,5025,88
120,-0.0150547539815,5026,88
121,-0.0150854419917,5027,88
122,-0.0151006588712,5028,88
123,-0.015130834654,5029,88
124,-0.0151606639847,5030,88
125,-0.0151901440695,5031,88
126,-0.015233701095,5032,88
127,-0.015262292698,5033,88
128,-0.0152764534578,5034,88
129,-0.0153045030311,5035,88
130,-0.0153183909133,5036,88
131,-0.015359503217,5037,88
132,-0.0153864501044,5038,88
133,-0.0154130226001,5039,88
134,-0.0154392179102,5040,88
135,-0.0154650360346,5041,88
136,-0.0154904741794,5042,88
137,-0.0155155295506,5043,88
138,-0.0155279133469,5044,88
139,-0.0155523912981,5045,88
140,-0.0155764827505,5046,88
141,-0.0156118916348,5047,88
142,-0.015635009855,5048,88
143,-0.0156577341259,5049,88
144,-0.0156689491123,5050,88
145,-0.0156800653785,5051,88
146,-0.0157128218561,5052,88
147,-0.0157341659069,5053,88
148,-0.0157551169395,5054,88
149,-0.0157654434443,5055,88
150,-0.0157958231866,5056,88
151,-0.0158155784011,5057,88
152,-0.0158349368721,5058,88
153,-0.0158538967371,5059,88
154,-0.015872457996,5060,88
155,-0.0158815886825,5061,88
156,-0.0159083884209,5062,88
157,-0.0159257557243,5063,88
158,-0.0159427262843,5064,88
159,-0.0159510616213,5065,88
160,-0.0159674342722,5066,88
161,-0.015975471586,5067,88
162,-0.0159989930689,5068,88
163,-0.0160141792148,5069,88
164,-0.01602897048,5070,88
165,-0.0160362198949,5071,88
166,-0.0160573739558,5072,88
167,-0.0160709861666,5073,88
168,-0.0160842053592,5074,88
169,-0.0160906687379,5075,88
170,-0.0161094740033,5076,88
171,-0.0161215271801,5077,88
172,-0.016133191064,5078,88
173,-0.0161444693804,5079,88
174,-0.0161499641836,5080,88
175,-0.01616066508,5081,88
176,-0.0161709822714,5082,88
177,-0.0161759965122,5083,88
178,-0.0161904711276,5084,88
179,-0.016199644655,5085,88
180,-0.0162084400654,5086,88
181,-0.0162168573588,5087,88
182,-0.0162209235132,5088,88
183,-0.0162325613201,5089,88
184,-0.0162362530828,5090,88
185,-0.0162433534861,5091,88
186,-0.0162533074617,5092,88
187,-0.0162594784051,5093,88
188,-0.0162652786821,5094,88
189,-0.0162680391222,5095,88
190,-0.0162707082927,5096,88
191,-0.0162781625986,5097,88
192,-0.0162804629654,5098,88
193,-0.0162847898901,5099,88
194,-0.016288748011,5100,88
195,-0.0162940006703,5101,88
196,-0.0162955690175,5102,88
197,-0.0162997264415,5103,88
198,-0.0163020454347,5104,88
199,-0.0163039993495,5105,88
200,-0.0163055919111,5106,88
201,-0.0163068212569,5107,88
202,-0.0163076873869,5108,88
203,-0.016308195889,5109,88
204,-0.0163083132356,5110,88
205,-0.016308279708,5111,88
206,-0.0163081269711,5112,88
207,-0.0163071267307,5113,88
208,-0.0163060091436,5114,88
209,-0.0163053162396,5115,88
210,-0.0163036584854,5116,88
211,-0.0163004994392,5117,88
212,-0.0162992663682,5118,88
213,-0.0162965301424,5119,88
214,-0.0162917487323,5120,88
215,-0.0162881109864,5121,88
216,-0.0162861570716,5122,88
217,-0.0162797514349,5123,88
218,-0.0162750314921,5124,88
219,-0.0162725355476,5125,88
220,-0.0162672735751,5126,88
221,-0.016264507547,5127,88
222,-0.0162587035447,5128,88
223,-0.0162493158132,5129,88
224,-0.0162426009774,5130,88
225,-0.0162391085178,5131,88
226,-0.0162280853838,5132,88
227,-0.0162202809006,5133,88
228,-0.0162162426859,5134,88
229,-0.0162078905851,5135,88
230,-0.0161991734058,5136,88
231,-0.0161854103208,5137,88
232,-0.0161757748574,5138,88
233,-0.0161657743156,5139,88
234,-0.0161606352776,5140,88
235,-0.0161500815302,5141,88
236,-0.0161391589791,5142,88
237,-0.0161335598677,5143,88
238,-0.016122084111,5144,88
239,-0.0161041710526,5145,88
240,-0.0160917658359,5146,88
241,-0.0160789880902,5147,88
242,-0.0160658415407,5148,88
243,-0.0160523224622,5149,88
244,-0.0160384271294,5150,88
245,-0.0160241555423,5151,88
246,-0.0160095114261,5152,88
247,-0.0159944929183,5153,88
248,-0.0159790962934,5154,88
249,-0.0159712582827,5155,88
250,-0.0159552972764,5156,88
251,-0.0159389600158,5157,88
252,-0.0159222446382,5158,88
253,-0.0159051530063,5159,88
254,-0.0158876832575,5160,88
255,-0.015869833529,5161,88
256,-0.0158516056836,5162,88
257,-0.0158423483372,5163,88
258,-0.0158235505223,5164,88
259,-0.015794640407,5165,88
260,-0.0157748907804,5166,88
261,-0.0157547611743,5167,88
262,-0.0157342515886,5168,88
263,-0.0157133601606,5169,88
264,-0.015692088753,5170,88
265,-0.0156813096255,5171,88
266,-0.0156704355031,5172,88
267,-0.0156484022737,5173,88
268,-0.0156146343797,5174,88
269,-0.015603187494,5175,88
270,-0.0155682740733,5176,88
271,-0.0155445216224,5177,88
272,-0.0155203873292,5178,88
273,-0.0155081776902,5179,88
274,-0.0154834715649,5180,88
275,-0.0154583854601,5181,88
276,-0.0154329184443,5182,88
277,-0.0153940040618,5183,88
278,-0.0153675861657,5184,88
279,-0.0153407873586,5185,88
280,-0.0153272459283,5186,88
281,-0.0152998790145,5187,88
282,-0.0152721330523,5188,88
283,-0.0152581175789,5189,88
284,-0.0152298044413,5190,88
285,-0.0151866255328,5191,88
286,-0.0151573689654,5192,88
287,-0.0151277361438,5193,88
288,-0.0150977279991,5194,88
289,-0.0150825837627,5195,88
290,-0.015036589466,5196,88
291,-0.0150054609403,5197,88
292,-0.0149739598855,5198,88
293,-0.0149420872331,5199,88
294,-0.0149098448455,5200,88
295,-0.014893585816,5201,88
296,-0.0148607911542,5202,88
297,-0.0148442555219,5203,88
298,-0.0148109095171,5204,88
299,-0.0147602073848,5205,88
300,-0.0147259514779,5206,88
301,-0.0147086875513,5207,88
302,-0.0146738868207,5208,88
303,-0.0146210137755,5209,88
304,-0.0145853171125,5210,88
305,-0.0145673351362,5211,88
306,-0.0145128574222,5212,88
307,-0.0144760981202,5213,88
308,-0.0144575862214,5214,88
309,-0.0144203007221,5215,88
310,-0.0143826669082,5216,88
311,-0.0143446875736,5217,88
312,-0.0143063636497,5218,88
313,-0.0142870731652,5219,88
314,-0.0142286913469,5220,88
315,-0.0141893476248,5221,88
316,-0.0141496686265,5222,88
317,-0.014109657146,5223,88
318,-0.0140693150461,5224,88
319,-0.0140286441892,5225,88
320,-0.0140081867576,5226,88
321,-0.0139463283122,5227,88
322,-0.0139255477116,5228,88
323,-0.0138627309352,5229,88
324,-0.0138204591349,5230,88
325,-0.0137992063537,5231,88
326,-0.0137778753415,5232,88
327,-0.013734982349,5233,88
328,-0.01369178202,5234,88
329,-0.0136482790112,5235,88
330,-0.0135824624449,5236,88
331,-0.01356037613,5237,88
332,-0.0135159818456,5238,88
333,-0.0134712960571,5239,88
334,-0.0134263234213,5240,88
335,-0.0133583312854,5241,88
336,-0.0133126527071,5242,88
337,-0.0132666993886,5243,88
338,-0.0132204731926,5244,88
339,-0.0131972590461,5245,88
340,-0.0131506295875,5246,88
341,-0.0131037347019,5247,88
342,-0.013056579046,5248,88
343,-0.0130091654137,5249,88
344,-0.0129614975303,5250,88
345,-0.0129135791212,5251,88
346,-0.0128654129803,5252,88
347,-0.0128170019016,5253,88
348,-0.0127683514729,5254,88
349,-0.0127194626257,5255,88
350,-0.0126703390852,5256,88
351,-0.012620985508,5257,88
352,-0.0125962235034,5258,88
353,-0.0125215984881,5259,88
354,-0.0124966120347,5260,88
355,-0.0124464752153,5261,88
356,-0.0123961213976,5262,88
357,-0.0123455543071,5263,88
358,-0.0122947767377,5264,88
359,-0.0122437896207,5265,88
360,-0.0121925976127,5266,88
361,-0.0121412044391,5267,88
362,-0.0121154328808,5268,88
363,-0.0120378220454,5269,88
364,-0.0119858374819,5270,88
365,-0.011933661066,5271,88
366,-0.0118812946603,5272,88
367,-0.0118287410587,5273,88
368,-0.0117760030553,5274,88
369,-0.0117495656013,5275,88
370,-0.0116965547204,5276,88
371,-0.0116433631629,5277,88
372,-0.0115899937227,5278,88
373,-0.011536449194,5279,88
374,-0.0114827286452,5280,88
375,-0.0114288358018,5281,88
376,-0.0113747725263,5282,88
377,-0.0113476775587,5283,88
378,-0.0112661356106,5284,88
379,-0.011211566627,5285,88
380,-0.011156831868,5286,88
381,-0.0111019322649,5287,88
382,-0.0110468668863,5288,88
383,-0.0109916394576,5289,88
384,-0.0109362499788,5290,88
385,-0.0109084947035,5291,88
386,-0.0108528640121,5292,88
387,-0.0107970712706,5293,88
388,-0.0107691157609,5294,88
389,-0.0107130846009,5295,88
390,-0.0106287393719,5296,88
391,-0.0105723114684,5297,88
392,-0.0105157252401,5298,88
393,-0.0104589816183,5299,88
394,-0.0104020796716,5300,88
395,-0.0103450203314,5301,88
396,-0.0102878045291,5302,88
397,-0.0102304313332,5303,88
398,-0.0101729016751,5304,88
399,-0.0101152155548,5305,88
400,-0.0100573739037,5306,88
401,-0.0100283948705,5307,88
0,-0.0100232521072,4908,89
1,-0.010072408244,4909,89
2,-0.0101459380239,4910,89
3,-0.0101948156953,4911,89
4,-0.0102435797453,4912,89
5,-0.0102679189295,4913,89
6,-0.0103165116161,4914,89
7,-0.0103649841622,4915,89
8,-0.010389175266,4916,89
9,-0.0104374689981,4917,89
10,-0.0105096809566,4918,89
11,-0.0105576664209,4919,89
12,-0.0106055280194,4920,89
13,-0.0106532620266,4921,89
14,-0.0106770806015,4922,89
15,-0.0107246227562,4923,89
16,-0.0107956938446,4924,89
17,-0.0108193187043,4925,89
18,-0.0108899949118,4926,89
19,-0.0109369466081,4927,89
20,-0.0109837651253,4928,89
21,-0.0110071236268,4929,89
22,-0.0110537400469,4930,89
23,-0.0110769979656,4931,89
24,-0.0111465649679,4932,89
25,-0.0111927706748,4933,89
26,-0.0112158227712,4934,89
27,-0.0112618217245,4935,89
28,-0.0113305607811,4936,89
29,-0.0113762132823,4937,89
30,-0.0114217251539,4938,89
31,-0.0114670973271,4939,89
32,-0.0115123288706,4940,89
33,-0.011557418853,4941,89
34,-0.0115799112245,4942,89
35,-0.0116471750662,4943,89
36,-0.0116695230827,4944,89
37,-0.0116918375716,4945,89
38,-0.0117363585159,4946,89
39,-0.0118028707802,4947,89
40,-0.0118470322341,4948,89
41,-0.0118910511956,4949,89
42,-0.0119130052626,4950,89
43,-0.0119786523283,4951,89
44,-0.0120222344995,4952,89
45,-0.0120656723157,4953,89
46,-0.0120873339474,4954,89
47,-0.0121305519715,4955,89
48,-0.0121951000765,4956,89
49,-0.0122165428475,4957,89
50,-0.0122806457803,4958,89
51,-0.0123019395396,4959,89
52,-0.0123231941834,4960,89
53,-0.01238673646,4961,89
54,-0.0124289058149,4962,89
55,-0.0124499341473,4963,89
56,-0.0125127891079,4964,89
57,-0.012533663772,4965,89
58,-0.0125960540026,4966,89
59,-0.0126374531537,4967,89
60,-0.0126786930487,4968,89
61,-0.0127197746187,4969,89
62,-0.0127402562648,4970,89
63,-0.0127810966223,4971,89
64,-0.0128420516849,4972,89
65,-0.0128824822605,4973,89
66,-0.012902636081,4974,89
67,-0.0129428161308,4975,89
68,-0.0129828266799,4976,89
69,-0.0130226677284,4977,89
70,-0.0130425225943,4978,89
71,-0.0131018254906,4979,89
72,-0.0131215052679,4980,89
73,-0.0131802745163,4981,89
74,-0.0132192261517,4982,89
75,-0.0132579943165,4983,89
76,-0.0132773090154,4984,89
77,-0.0133349681273,4985,89
78,-0.013373167254,4986,89
79,-0.0133921951056,4987,89
80,-0.0134301027283,4988,89
81,-0.013467811048,4989,89
82,-0.0135053191334,4990,89
83,-0.0135426232591,4991,89
84,-0.0135797196999,4992,89
85,-0.0136166047305,4993,89
86,-0.0136349676177,4994,89
87,-0.013689732179,4995,89
88,-0.0137259680778,4996,89
89,-0.0137619804591,4997,89
90,-0.0137799018994,4998,89
91,-0.0138333225623,4999,89
92,-0.0138686448336,5000,89
93,-0.0139037305489,5001,89
94,-0.0139385769144,5002,89
95,-0.013973178342,5003,89
96,-0.0139903873205,5004,89
97,-0.0140075339004,5005,89
98,-0.0140585955232,5006,89
99,-0.0140754887834,5007,89
100,-0.0141257783398,5008,89
101,-0.0141589771956,5009,89
102,-0.0141919096932,5010,89
103,-0.0142245711759,5011,89
104,-0.0142569579184,5012,89
105,-0.0142890671268,5013,89
106,-0.0143050169572,5014,89
107,-0.0143524380401,5015,89
108,-0.0143681010231,5016,89
109,-0.0144146513194,5017,89
110,-0.0144453179091,5018,89
111,-0.0144605394453,5019,89
112,-0.0144907562062,5020,89
113,-0.0145206674933,5021,89
114,-0.014550271444,5022,89
115,-0.014579564333,5023,89
116,-0.0146085452288,5024,89
117,-0.0146372076124,5025,89
118,-0.014665549621,5026,89
119,-0.014679598622,5027,89
120,-0.0147212566808,5028,89
121,-0.0147486180067,5029,89
122,-0.0147756477818,5030,89
123,-0.0148023404181,5031,89
124,-0.0148286959156,5032,89
125,-0.0148417465389,5033,89
126,-0.0148675888777,5034,89
127,-0.0148930866271,5035,89
128,-0.0149182360619,5036,89
129,-0.0149430362508,5037,89
130,-0.0149674843997,5038,89
131,-0.0149795748293,5039,89
132,-0.0150153115392,5040,89
133,-0.0150386895984,5041,89
134,-0.0150617063046,5042,89
135,-0.0150843616575,5043,89
136,-0.0150955514982,5044,89
137,-0.0151285743341,5045,89
138,-0.0151501307264,5046,89
139,-0.0151713173836,5047,89
140,-0.0151921324432,5048,89
141,-0.0152125768363,5049,89
142,-0.0152226602659,5050,89
143,-0.0152425421402,5051,89
144,-0.0152620505542,5052,89
145,-0.0152811827138,5053,89
146,-0.0152999376878,5054,89
147,-0.0153183136135,5055,89
148,-0.015327360481,5056,89
149,-0.0153539329767,5057,89
150,-0.0153626007959,5058,89
151,-0.0153880314901,5059,89
152,-0.0154045112431,5060,89
153,-0.0154206091538,5061,89
154,-0.0154363252223,5062,89
155,-0.0154516613111,5063,89
156,-0.0154666155577,5064,89
157,-0.0154739487916,5065,89
158,-0.0154883302748,5066,89
159,-0.0155023289844,5067,89
160,-0.0155159467831,5068,89
161,-0.0155291836709,5069,89
162,-0.0155420377851,5070,89
163,-0.0155545119196,5071,89
164,-0.0155666051432,5072,89
165,-0.0155783193186,5073,89
166,-0.0155896516517,5074,89
167,-0.0156006049365,5075,89
168,-0.0156111801043,5076,89
169,-0.0156163256615,5077,89
170,-0.0156311932951,5078,89
171,-0.0156406350434,5079,89
172,-0.0156452152878,5080,89
173,-0.0156540907919,5081,89
174,-0.0156583897769,5082,89
175,-0.0156707130373,5083,89
176,-0.0156784616411,5084,89
177,-0.0156858377159,5085,89
178,-0.0156893823296,5086,89
179,-0.0156961977482,5087,89
180,-0.0157057214528,5088,89
181,-0.0157116036862,5089,89
182,-0.0157171189785,5090,89
183,-0.0157222617418,5091,89
184,-0.015727031976,5092,89
185,-0.0157314352691,5093,89
186,-0.0157354660332,5094,89
187,-0.0157373435795,5095,89
188,-0.0157408230007,5096,89
189,-0.0157424230129,5097,89
190,-0.015745351091,5098,89
191,-0.0157479140908,5099,89
192,-0.015751067549,5100,89
193,-0.015751933679,5101,89
194,-0.0157539919019,5102,89
195,-0.0157544929534,5103,89
196,-0.0157552268356,5104,89
197,-0.0157556384802,5105,89
198,-0.0157554578036,5106,89
199,-0.0157549120486,5107,89
200,-0.0157540012151,5108,89
201,-0.0157534088939,5109,89
202,-0.0157519523054,5110,89
203,-0.0157501325011,5111,89
204,-0.0157490856946,5112,89
205,-0.0157467219979,5113,89
206,-0.0157424937934,5114,89
207,-0.0157408993691,5115,89
208,-0.0157355833799,5116,89
209,-0.0157336313277,5117,89
210,-0.0157272219658,5118,89
211,-0.0157224982977,5119,89
212,-0.0157174114138,5120,89
213,-0.0157147310674,5121,89
214,-0.0157061479986,5122,89
215,-0.0156999714673,5123,89
216,-0.0156934335828,5124,89
217,-0.0156900249422,5125,89
218,-0.01568293944,5126,89
219,-0.0156754925847,5127,89
220,-0.0156676806509,5128,89
221,-0.0156595055014,5129,89
222,-0.015650967136,5130,89
223,-0.0156420655549,5131,89
224,-0.0156328007579,5132,89
225,-0.0156231736764,5133,89
226,-0.0156131805852,5134,89
227,-0.0156028252095,5135,89
228,-0.0155921047553,5136,89
229,-0.0155866090208,5137,89
230,-0.0155695760623,5138,89
231,-0.0155637161806,5139,89
232,-0.0155517235398,5140,89
233,-0.0155455907807,5141,89
234,-0.0155330523849,5142,89
235,-0.0155135598034,5143,89
236,-0.0155001124367,5144,89
237,-0.0154862999916,5145,89
238,-0.0154721224681,5146,89
239,-0.0154575789347,5147,89
240,-0.015450171195,5148,89
241,-0.0154350828379,5149,89
242,-0.0154196294025,5150,89
243,-0.0153957670555,5151,89
244,-0.0153876300901,5152,89
245,-0.0153710823506,5153,89
246,-0.0153455780819,5154,89
247,-0.0153368934989,5155,89
248,-0.015319250524,5156,89
249,-0.0153012434021,5157,89
250,-0.0152828702703,5158,89
251,-0.0152735477313,5159,89
252,-0.0152450334281,5160,89
253,-0.0152255669236,5161,89
254,-0.0152057344094,5162,89
255,-0.0151855358854,5163,89
256,-0.0151649722829,5164,89
257,-0.0151545535773,5165,89
258,-0.0151227461174,5166,89
259,-0.015111961402,5167,89
260,-0.0150790577754,5168,89
261,-0.0150566659868,5169,89
262,-0.0150339063257,5170,89
263,-0.0150223895907,5171,89
264,-0.0149990813807,5172,89
265,-0.0149754080921,5173,89
266,-0.0149634340778,5174,89
267,-0.0149269625545,5175,89
268,-0.0149021903053,5176,89
269,-0.0148770520464,5177,89
270,-0.014851548709,5178,89
271,-0.0148256784305,5179,89
272,-0.0147994449362,5180,89
273,-0.0147728445008,5181,89
274,-0.0147594083101,5182,89
275,-0.0147185502574,5183,89
276,-0.0146908564493,5184,89
277,-0.0146627984941,5185,89
278,-0.0146486330777,5186,89
279,-0.0146200293675,5187,89
280,-0.0145910633728,5188,89
281,-0.0145617360249,5189,89
282,-0.0145320491865,5190,89
283,-0.0145170688629,5191,89
284,-0.0144715895876,5192,89
285,-0.0144408233464,5193,89
286,-0.0144253047183,5194,89
287,-0.0143782151863,5195,89
288,-0.014362340793,5196,89
289,-0.014314185828,5197,89
290,-0.0142816426232,5198,89
291,-0.0142487473786,5199,89
292,-0.0142321679741,5200,89
293,-0.0141987493262,5201,89
294,-0.0141649842262,5202,89
295,-0.0141479717568,5203,89
296,-0.0141136888415,5204,89
