,amplitude,tstep,vfp
0,-0.01000771299,4374,92
1,-0.0100321443751,4375,92
2,-0.0100575182587,4376,92
3,-0.0100838225335,4377,92
4,-0.0100973183289,4378,92
5,-0.0101391626522,4379,92
6,-0.0101681668311,4380,92
7,-0.0101980371401,4381,92
8,-0.0102287530899,4382,92
9,-0.0102602969855,4383,92
10,-0.0102763725445,4384,92
11,-0.0103091159835,4385,92
12,-0.0103426305577,4386,92
13,-0.0103768929839,4387,92
14,-0.0104118762538,4388,92
15,-0.0104296309873,4389,92
16,-0.010483905673,4390,92
17,-0.010520895943,4391,92
18,-0.010558500886,4392,92
19,-0.0105966897681,4393,92
20,-0.0106354337186,4394,92
21,-0.0106550045311,4395,92
22,-0.0107144638896,4396,92
23,-0.0107345199212,4397,92
24,-0.0107749616727,4398,92
25,-0.0108158160001,4399,92
26,-0.0108570503071,4400,92
27,-0.0108986310661,4401,92
28,-0.0109405256808,4402,92
29,-0.0109615800902,4403,92
30,-0.0110251195729,4404,92
31,-0.0110464096069,4405,92
32,-0.0111105553806,4406,92
33,-0.0111535033211,4407,92
34,-0.0111965574324,4408,92
35,-0.0112181128934,4409,92
36,-0.011282844469,4410,92
37,-0.0113260084763,4411,92
38,-0.0113691389561,4412,92
39,-0.0114122014493,4413,92
40,-0.011433695443,4414,92
41,-0.0114551596344,4415,92
42,-0.0115193268284,4416,92
43,-0.0115618752316,4417,92
44,-0.011604199186,4418,92
45,-0.0116252666339,4419,92
46,-0.0116671901196,4420,92
47,-0.011729484424,4421,92
48,-0.011770571582,4422,92
49,-0.0118112657219,4423,92
50,-0.0118314549327,4424,92
51,-0.0118913454935,4425,92
52,-0.0119306659326,4426,92
53,-0.0119694638997,4427,92
54,-0.0119886575267,4428,92
55,-0.0120266135782,4429,92
56,-0.0120639689267,4430,92
57,-0.0121006928384,4431,92
58,-0.0121367564425,4432,92
59,-0.0121721299365,4433,92
60,-0.0122067835182,4434,92
61,-0.0122406883165,4435,92
62,-0.0122738154605,4436,92
63,-0.0123061370105,4437,92
64,-0.012337625958,4438,92
65,-0.0123682534322,4439,92
66,-0.0123979942873,4440,92
67,-0.0124268205836,4441,92
68,-0.0124547062442,4442,92
69,-0.0124816261232,4443,92
70,-0.0124947167933,4444,92
71,-0.0125075560063,4445,92
72,-0.0125445397571,4446,92
73,-0.0125563470647,4447,92
74,-0.0125901615247,4448,92
75,-0.0126008884981,4449,92
76,-0.0126313939691,4450,92
77,-0.0126503063366,4451,92
78,-0.0126680554822,4452,92
79,-0.0126764867455,4453,92
80,-0.0126999765635,4454,92
81,-0.0127141075209,4455,92
82,-0.012720707804,4456,92
83,-0.0127386134118,4457,92
84,-0.0127489510924,4458,92
85,-0.0127579858527,4459,92
86,-0.0127620091662,4460,92
87,-0.0127657009289,4461,92
88,-0.0127747608349,4462,92
89,-0.0127791017294,4463,92
90,-0.0127820642665,4464,92
91,-0.0127836344764,4465,92
92,-0.0127837965265,4466,92
93,-0.0127825373784,4467,92
94,-0.0127798411995,4468,92
95,-0.0127779506147,4469,92
96,-0.0127730770037,4470,92
97,-0.0127630131319,4471,92
98,-0.0127544514835,4472,92
99,-0.0127443950623,4473,92
100,-0.0127328354865,4474,92
101,-0.0127264885232,4475,92
102,-0.0127197625116,4476,92
103,-0.012697301805,4477,92
104,-0.0126804141328,4478,92
105,-0.0126619879156,4479,92
106,-0.0126420175657,4480,92
107,-0.0126204984263,4481,92
108,-0.0125974277034,4482,92
109,-0.0125728007406,4483,92
110,-0.0125466156751,4484,92
111,-0.0125329392031,4485,92
112,-0.0125044146553,4486,92
113,-0.0124743301421,4487,92
114,-0.0124262804165,4488,92
115,-0.0123923020437,4489,92
116,-0.0123747307807,4490,92
117,-0.0123384250328,4491,92
118,-0.0123196914792,4492,92
119,-0.0122611792758,4493,92
120,-0.0122202532366,4494,92
121,-0.012177801691,4495,92
122,-0.0121560059488,4496,92
123,-0.012088354677,4497,92
124,-0.0120650548488,4498,92
125,-0.0119929229841,4499,92
126,-0.0119681414217,4500,92
127,-0.0118916062638,4501,92
128,-0.0118653709069,4502,92
129,-0.0118118263781,4503,92
130,-0.0117288567126,4504,92
131,-0.0117005016655,4505,92
132,-0.0116427578032,4506,92
133,-0.01158365421,4507,92
134,-0.0115535994992,4508,92
135,-0.011461452581,4509,92
136,-0.0113983983174,4510,92
137,-0.0113663943484,4511,92
138,-0.0113014467061,4512,92
139,-0.0112017281353,4513,92
140,-0.0111337564886,4514,92
141,-0.0110646244138,4515,92
142,-0.0110296327621,4516,92
143,-0.0109229991212,4517,92
144,-0.0108869150281,4518,92
145,-0.0107771037146,4519,92
146,-0.0107399942353,4520,92
147,-0.0107026388869,4521,92
148,-0.0105891386047,4522,92
149,-0.0105123240501,4523,92
150,-0.0104346340522,4524,92
151,-0.010356105864,4525,92
152,-0.0102767795324,4526,92
153,-0.0101966941729,4527,92
154,-0.0101563800126,4528,92
155,-0.0100344121456,4529,92
0,0.0100034689531,3710,93
1,0.0100345322862,3711,93
2,0.0100498264655,3712,93
3,0.0100947311148,3713,93
4,0.0101238302886,3714,93
5,0.0101522356272,3715,93
6,0.0101799303666,3716,93
7,0.0101935043931,3717,93
8,0.0102200945839,3718,93
9,0.0102459276095,3719,93
10,0.0102709829807,3720,93
11,0.0102832140401,3721,93
12,0.0103186909109,3722,93
13,0.010341306217,3723,93
14,0.0103630721569,3724,93
15,0.0103736305609,3725,93
16,0.0104039795697,3726,93
17,0.0104136476293,3727,93
18,0.0104412743822,3728,93
19,0.0104585224763,3729,93
20,0.0104748159647,3730,93
21,0.0104901371524,3731,93
22,0.0105044692755,3732,93
23,0.0105112595484,3733,93
24,0.0105177965015,3734,93
25,0.0105358660221,3735,93
26,0.010546608828,3736,93
27,0.0105562899262,3737,93
28,0.0105607276782,3738,93
29,0.0105724064633,3739,93
30,0.0105788111687,3740,93
31,0.0105840964243,3741,93
32,0.010588247329,3742,93
33,0.0105912480503,3743,93
34,0.0105930855498,3744,93
35,0.0105935642496,3745,93
36,0.0105932215229,3746,93
37,0.0105914929882,3747,93
38,0.0105885537341,3748,93
39,0.0105866249651,3749,93
40,0.010581843555,3750,93
41,0.0105789871886,3751,93
42,0.0105723394081,3752,93
43,0.0105600086972,3753,93
44,0.0105501990765,3754,93
45,0.0105391088873,3755,93
46,0.0105330804363,3756,93
47,0.0105130504817,3757,93
48,0.0104980664328,3758,93
49,0.010481769219,3759,93
50,0.0104731256142,3760,93
51,0.0104452064261,3761,93
52,0.0104249278083,3762,93
53,0.0104142874479,3763,93
54,0.01039200183,3764,93
55,0.010368370451,3765,93
56,0.0103433895856,3766,93
57,0.0103170573711,3767,93
58,0.0102893710136,3768,93
59,0.0102603267878,3769,93
60,0.0102299237624,3770,93
61,0.010198161006,3771,93
62,0.010165036656,3772,93
63,0.0101305544376,3773,93
64,0.0100947124884,3774,93
65,0.0100762816146,3775,93
66,0.0100189540535,3776,93
67,-0.0100604919717,4385,93
68,-0.0101530272514,4386,93
69,-0.0102454684675,4387,93
70,-0.0103377681226,4388,93
71,-0.0103838490322,4389,93
72,-0.0105217481032,4390,93
73,-0.0106133362278,4391,93
74,-0.0106590092182,4392,93
75,-0.0107954712585,4393,93
76,-0.0108859231696,4394,93
77,-0.0109759038314,4395,93
78,-0.0110207023099,4396,93
79,-0.0111542642117,4397,93
80,-0.0112425545231,4398,93
81,-0.0112864561379,4399,93
82,-0.0113737462088,4400,93
83,-0.0114171234891,4401,93
84,-0.0115461163223,4402,93
85,-0.0116311078891,4403,93
86,-0.0117152454332,4404,93
87,-0.0117984870449,4405,93
88,-0.0118397576734,4406,93
89,-0.0119621064514,4407,93
90,-0.0120424022898,4408,93
91,-0.0121216345578,4409,93
92,-0.012199761346,4410,93
93,-0.01227674447,4411,93
94,-0.0123525429517,4412,93
95,-0.0123899858445,4413,93
96,-0.0124639347196,4414,93
97,-0.0125004313886,4415,93
98,-0.0126079553738,4416,93
99,-0.0126779535785,4417,93
100,-0.0127124330029,4418,93
101,-0.0128137441352,4419,93
102,-0.0128794675693,4420,93
103,-0.012943697162,4421,93
104,-0.0130064012483,4422,93
105,-0.0130675472319,4423,93
106,-0.0131271025166,4424,93
107,-0.0131850391626,4425,93
108,-0.0132413245738,4426,93
109,-0.0132959308103,4427,93
110,-0.0133225955069,4428,93
111,-0.0133746312931,4429,93
112,-0.0134249199182,4430,93
113,-0.0134494006634,4431,93
114,-0.0134970191866,4432,93
115,-0.0135650457814,4433,93
116,-0.0136080933735,4434,93
117,-0.0136492745951,4435,93
118,-0.0136885680258,4436,93
119,-0.0137074999511,4437,93
120,-0.013761408627,4438,93
121,-0.0137949194759,4439,93
122,-0.0138264680281,4440,93
123,-0.0138560375199,4441,93
124,-0.0138836149126,4442,93
125,-0.0138966524974,4443,93
126,-0.0139212142676,4444,93
127,-0.0139327365905,4445,93
128,-0.0139642525464,4446,93
129,-0.0139737362042,4447,93
130,-0.0139911649749,4448,93
131,-0.0140134468675,4449,93
132,-0.0140198413283,4450,93
133,-0.0140359168872,4451,93
134,-0.0140440389514,4452,93
135,-0.0140500823036,4453,93
136,-0.0140540450811,4454,93
137,-0.0140559282154,4455,93
138,-0.0140557317063,4456,93
139,-0.0140548544005,4457,93
140,-0.0140491109341,4458,93
141,-0.0140426959842,4459,93
142,-0.0140387155116,4460,93
143,-0.0140292104334,4461,93
144,-0.0140236895531,4462,93
145,-0.0140040609986,4463,93
146,-0.0139884361997,4464,93
147,-0.0139707922935,4465,93
148,-0.0139511441812,4466,93
149,-0.0139405727386,4467,93
150,-0.0139058921486,4468,93
151,-0.0138933509588,4469,93
152,-0.0138528114185,4470,93
153,-0.0138233816251,4471,93
154,-0.0137920519337,4472,93
155,-0.0137588437647,4473,93
156,-0.013723783195,4474,93
157,-0.0137055646628,4475,93
158,-0.0136868925765,4476,93
159,-0.0136281810701,4477,93
160,-0.0136077245697,4478,93
161,-0.0135437436402,4479,93
162,-0.0135215586051,4480,93
163,-0.0134524824098,4481,93
164,-0.0134043702856,4482,93
165,-0.0133546469733,4483,93
166,-0.0133291911334,4484,93
167,-0.0132505018264,4485,93
168,-0.0132235120982,4486,93
169,-0.0131684197113,4487,93
170,-0.0130830695853,4488,93
171,-0.0130244195461,4489,93
172,-0.0129945827648,4490,93
173,-0.0129339117557,4491,93
174,-0.0128719452769,4492,93
175,-0.0128404889256,4493,93
176,-0.0127442870289,4494,93
177,-0.0126786800101,4495,93
178,-0.0126119442284,4496,93
179,-0.0125441253185,4497,93
180,-0.01247526519,4498,93
181,-0.0124404588714,4499,93
182,-0.0123346028849,4500,93
183,-0.0122628891841,4501,93
184,-0.012226707302,4502,93
185,-0.0121169295162,4503,93
186,-0.0120427738875,4504,93
187,-0.0120054231957,4505,93
188,-0.011930202134,4506,93
189,-0.0118543310091,4507,93
190,-0.01181616541,4508,93
191,-0.0117394030094,4509,93
192,-0.0116232708097,4510,93
193,-0.0115452585742,4511,93
194,-0.0114668272436,4512,93
195,-0.0114274686202,4513,93
196,-0.01130889263,4514,93
197,-0.0112294815481,4515,93
198,-0.0111498348415,4516,93
199,-0.0110699981451,4517,93
200,-0.0109900142998,4518,93
201,-0.0109099298716,4519,93
202,-0.0108698625118,4520,93
203,-0.0107897063717,4521,93
204,-0.0107095548883,4522,93
205,-0.0106294509023,4523,93
206,-0.010549435392,4524,93
207,-0.0104695484042,4525,93
208,-0.0103898299858,4526,93
209,-0.0103500457481,4527,93
210,-0.0102706495672,4528,93
211,-0.0101520614699,4529,93
212,-0.010073392652,4530,93
213,-0.0100341876969,4531,93
0,-0.0100008677691,4356,94
1,-0.010085224174,4357,94
2,-0.0101413102821,4358,94
3,-0.0101972166449,4359,94
4,-0.0102528948337,4360,94
5,-0.0102806324139,4361,94
6,-0.0103633673862,4362,94
7,-0.0104180648923,4363,94
8,-0.0104723386467,4364,94
9,-0.0104993022978,4365,94
10,-0.0105794286355,4366,94
11,-0.0106321517378,4367,94
12,-0.0106842648238,4368,94
13,-0.0107100782916,4369,94
14,-0.0107611939311,4370,94
15,-0.0108115896583,4371,94
16,-0.0108612244949,4372,94
17,-0.0109100583941,4373,94
18,-0.0109341619536,4374,94
19,-0.0110051622614,4375,94
20,-0.0110513558611,4376,94
21,-0.0110965957865,4377,94
22,-0.0111408494413,4378,94
23,-0.0111840832978,4379,94
24,-0.0112053081393,4380,94
25,-0.0112673705444,4381,94
26,-0.0112875085324,4382,94
27,-0.0113462284207,4383,94
28,-0.0113652274013,4384,94
29,-0.0114023452625,4385,94
30,-0.0114382738248,4386,94
31,-0.0114729944617,4387,94
32,-0.0115064885467,4388,94
33,-0.0115387411788,4389,94
34,-0.0115697393194,4390,94
35,-0.0115994717926,4391,94
36,-0.0116279302165,4392,94
37,-0.0116551062092,4393,94
38,-0.0116682117805,4394,94
39,-0.0116934562102,4395,94
40,-0.0117289032787,4396,94
41,-0.011750921607,4397,94
42,-0.0117716537789,4398,94
43,-0.0117815388367,4399,94
44,-0.0118003515527,4400,94
45,-0.0118092820048,4401,94
46,-0.0118341818452,4402,94
47,-0.0118492217734,4403,94
48,-0.0118630286306,4404,94
49,-0.0118756182492,4405,94
50,-0.0118870092556,4406,94
51,-0.0118922619149,4407,94
52,-0.011906279251,4408,94
53,-0.0119103817269,4409,94
54,-0.011921018362,4410,94
55,-0.0119240181521,4411,94
56,-0.0119314305484,4412,94
57,-0.0119350841269,4413,94
58,-0.0119365360588,4414,94
59,-0.0119387116283,4415,94
60,-0.0119399428368,4416,94
61,-0.011940264143,4417,94
62,-0.011940093711,4418,94
63,-0.0119391158223,4419,94
64,-0.0119361206889,4420,94
65,-0.0119331618771,4421,94
66,-0.011931409128,4422,94
67,-0.0119251124561,4423,94
68,-0.011920100078,4424,94
69,-0.0119173657149,4425,94
70,-0.0119083095342,4426,94
71,-0.0119016123936,4427,94
72,-0.0118944384158,4428,94
73,-0.0118906842545,4429,94
74,-0.0118828704581,4430,94
75,-0.0118746841326,4431,94
76,-0.0118661671877,4432,94
77,-0.0118573615327,4433,94
78,-0.0118483072147,4434,94
79,-0.0118437008932,4435,94
80,-0.0118343541399,4436,94
81,-0.0118200713769,4437,94
82,-0.0118152610958,4438,94
83,-0.0118007529527,4439,94
84,-0.0117910625413,4440,94
85,-0.0117813991383,4441,94
86,-0.0117765897885,4442,94
87,-0.0117670362815,4443,94
88,-0.0117576001212,4444,94
89,-0.0117483139038,4445,94
90,-0.0117392102256,4446,94
91,-0.011730318889,4447,94
92,-0.0117216687649,4448,94
93,-0.0117132877931,4449,94
94,-0.0117052020505,4450,94
95,-0.0117012765259,4451,94
96,-0.0116900093853,4452,94
97,-0.0116829471663,4453,94
98,-0.0116762677208,4454,94
99,-0.0116699878126,4455,94
100,-0.0116641214117,4456,94
101,-0.0116586834192,4457,94
102,-0.0116536831483,4458,94
103,-0.0116491317749,4459,94
104,-0.0116470269859,4460,94
105,-0.0116450367495,4461,94
106,-0.0116397598758,4462,94
107,-0.0116368196905,4463,94
108,-0.0116343442351,4464,94
109,-0.0116332806647,4465,94
110,-0.011630775407,4466,94
111,-0.0116296689957,4467,94
112,-0.0116290040314,4468,94
113,-0.0116288335994,4469,94
114,-0.0116289500147,4470,94
115,-0.0116295330226,4471,94
116,-0.0116304997355,4472,94
117,-0.0116318305954,4473,94
118,-0.0116335041821,4474,94
119,-0.0116344615817,4475,94
120,-0.0116366036236,4476,94
121,-0.011639024131,4477,94
122,-0.0116403298452,4478,94
123,-0.0116431135684,4479,94
124,-0.0116461012512,4480,94
125,-0.0116508901119,4481,94
126,-0.0116542363539,4482,94
127,-0.011657660827,4483,94
128,-0.0116593912244,4484,94
129,-0.0116628594697,4485,94
130,-0.0116680059582,4486,94
131,-0.0116713363677,4487,94
132,-0.0116745345294,4488,94
133,-0.0116760693491,4489,94
134,-0.0116789806634,4490,94
135,-0.0116816423833,4491,94
136,-0.0116840032861,4492,94
137,-0.0116860140115,4493,94
138,-0.0116876242682,4494,94
139,-0.0116887828335,4495,94
140,-0.011689436622,4496,94
141,-0.0116895325482,4497,94
142,-0.0116890193895,4498,94
143,-0.011687843129,4499,94
144,-0.0116869891062,4500,94
145,-0.0116832852364,4501,94
146,-0.0116797974333,4502,94
147,-0.0116754304618,4503,94
148,-0.011670133099,4504,94
149,-0.0116671184078,4505,94
150,-0.0116638513282,4506,94
151,-0.0116524677724,4507,94
152,-0.0116434972733,4508,94
153,-0.0116333607584,4509,94
154,-0.0116278398782,4510,94
155,-0.0116093913093,4511,94
156,-0.0116025935858,4512,94
157,-0.0115801701322,4513,94
158,-0.0115719996393,4514,94
159,-0.0115453256294,4515,94
160,-0.011525685899,4516,94
161,-0.0115045113489,4517,94
162,-0.0114817610011,4518,94
163,-0.0114573976025,4519,94
164,-0.0114445993677,4520,94
165,-0.0114177493379,4521,94
166,-0.0113891977817,4522,94
167,-0.0113589158282,4523,94
168,-0.0113268727437,4524,94
169,-0.0113101815805,4525,94
170,-0.0112573979422,4526,94
171,-0.0112199177966,4527,94
172,-0.0112004829571,4528,94
173,-0.0111393742263,4529,94
174,-0.0111180627719,4530,94
175,-0.0110512766987,4531,94
176,-0.0110043659806,4532,94
177,-0.0109801907092,4533,94
178,-0.010904780589,4534,94
179,-0.0108786812052,4535,94
180,-0.0108250370249,4536,94
181,-0.0107694687322,4537,94
182,-0.0107119809836,4538,94
183,-0.0106525802985,4539,94
184,-0.01059127599,4540,94
185,-0.0105280829594,4541,94
186,-0.0104957818985,4542,94
187,-0.0103960921988,4543,94
188,-0.0103273335844,4544,94
189,-0.010256764479,4545,94
190,-0.0101844100282,4546,94
191,-0.0101103000343,4547,94
192,-0.0100344670936,4548,94
0,-0.0101178102195,4385,95
1,-0.0102593200281,4386,95
2,-0.010679859668,4387,95
3,-0.010818598792,4388,95
4,-0.0112300366163,4389,95
5,-0.0115000260994,4390,95
6,-0.0117662800476,4391,95
7,-0.0120285516605,4392,95
8,-0.0122865978628,4393,95
9,-0.0125401839614,4394,95
10,-0.0127890780568,4395,95
11,-0.013033054769,4396,95
12,-0.0132718961686,4397,95
13,-0.0135053861886,4398,95
14,-0.0136200608686,4399,95
15,-0.0138451419771,4400,95
16,-0.0140643687919,4401,95
17,-0.0142775513232,4402,95
18,-0.0144845051691,4403,95
19,-0.0146850561723,4404,95
20,-0.0147828757763,4405,95
21,-0.0149735044688,4406,95
22,-0.0152466250584,4407,95
23,-0.0154199404642,4408,95
24,-0.0155860800296,4409,95
25,-0.0156664177775,4410,95
26,-0.0158963147551,4411,95
27,-0.0160401687026,4412,95
28,-0.0161092318594,4413,95
29,-0.0162415672094,4414,95
30,-0.0163660980761,4415,95
31,-0.0164254102856,4416,95
32,-0.0165914073586,4417,95
33,-0.0166427288204,4418,95
34,-0.0167393051088,4419,95
35,-0.0168688949198,4420,95
36,-0.0169450286776,4421,95
37,-0.0170129016042,4422,95
38,-0.0170724857599,4423,95
39,-0.0171237513423,4424,95
40,-0.0171666797251,4425,95
41,-0.0172012597322,4426,95
42,-0.017215417698,4427,95
43,-0.017245369032,4428,95
44,-0.0172511804849,4429,95
45,-0.0172565579414,4430,95
46,-0.0172561295331,4431,95
47,-0.0172490514815,4432,95
48,-0.0172229520977,4433,95
49,-0.017210142687,4434,95
50,-0.0171594619751,4435,95
51,-0.0171155333519,4436,95
52,-0.0170635618269,4437,95
53,-0.0170036107302,4438,95
54,-0.0169357545674,4439,95
55,-0.0168600715697,4440,95
56,-0.0167766436934,4441,95
57,-0.0166855659336,4442,95
58,-0.0166371855885,4443,95
59,-0.0165348052979,4444,95
60,-0.0164250172675,4445,95
61,-0.0163079295307,4446,95
62,-0.0161836538464,4447,95
63,-0.0160523056984,4448,95
64,-0.0159840174019,4449,95
65,-0.0157688837498,4450,95
66,-0.0156170642003,4451,95
67,-0.0155386868864,4452,95
68,-0.0153770782053,4453,95
69,-0.0151227964088,4454,95
70,-0.0149455713108,4455,95
71,-0.0147623568773,4456,95
72,-0.0145733030513,4457,95
73,-0.0143785644323,4458,95
74,-0.0141782974824,4459,95
75,-0.0140761407092,4460,95
76,-0.0139726623893,4461,95
77,-0.0136545021087,4462,95
78,-0.0135459424928,4463,95
79,-0.0132130365819,4464,95
80,-0.0129852890968,4465,95
81,-0.0127530936152,4466,95
82,-0.0125166252255,4467,95
83,-0.0122760590166,4468,95
84,-0.0120315719396,4469,95
85,-0.0119079127908,4470,95
86,-0.0116578778252,4471,95
87,-0.0112763689831,4472,95
88,-0.0110179893672,4473,95
89,-0.0108876544982,4474,95
90,-0.0106248119846,4475,95
91,-0.0103592230007,4476,95
92,-0.0100910710171,4477,95
93,0.010059366934,2937,95
94,0.0102043235675,2938,95
95,0.0103489104658,2939,95
96,0.0104930568486,2940,95
97,0.010636691004,2941,95
98,0.0107797402889,2942,95
99,0.0108510227874,2943,95
100,0.0110637955368,2944,95
101,0.0112046552822,2945,95
102,0.0112747615203,2946,95
103,0.0114142801613,2947,95
104,0.0115528134629,2948,95
105,0.0116902878508,2949,95
106,0.0118266278878,2950,95
107,0.0119617627934,2951,95
108,0.0120288552716,2952,95
109,0.0121620455757,2953,95
110,0.0123592084274,2954,95
111,0.0124241933227,2955,95
112,0.0126168187708,2956,95
113,0.0127432057634,2957,95
114,0.0128678847104,2958,95
115,0.012990789488,2959,95
116,0.0131118483841,2960,95
117,0.0131716653705,2961,95
118,0.0132898306474,2962,95
119,0.0133481640369,2963,95
120,0.0135200638324,2964,95
121,0.0135763036087,2965,95
122,0.0137417344376,2966,95
123,0.0137957558036,2967,95
124,0.0139543469995,2968,95
125,0.0140060288832,2969,95
126,0.0141574246809,2970,95
127,0.0142552442849,2971,95
128,0.0143505129963,2972,95
129,0.0144431767985,2973,95
130,0.0144885163754,2974,95
131,0.0146204885095,2975,95
132,0.0147050386295,2976,95
133,0.0147462682799,2977,95
134,0.0148266050965,2978,95
135,0.0149040780962,2979,95
136,0.0149417277426,2980,95
137,0.0150148309767,2981,95
138,0.0151189211756,2982,95
139,0.0151521163061,2983,95
140,0.0152162294835,2984,95
141,0.0152772795409,2985,95
142,0.0153352376074,2986,95
143,0.0153900757432,2987,95
144,0.0154664302245,2988,95
145,0.0155133642256,2989,95
146,0.0155571019277,2990,95
