,amplitude,tstep,vfp
0,-0.0139445289969,4608,92
1,-0.0139357727021,4609,92
2,-0.0139257581905,4610,92
3,-0.0139202773571,4611,92
4,-0.0139083601534,4612,92
5,-0.0138951633126,4613,92
6,-0.0138806793839,4614,92
7,-0.0138729522005,4615,92
8,-0.0138478185982,4616,92
9,-0.0138387866318,4617,92
10,-0.0138097209856,4618,92
11,-0.0137886935845,4619,92
12,-0.0137663409114,4620,92
13,-0.0137546658516,4621,92
14,-0.013717642054,4622,92
15,-0.0136912884191,4623,92
16,-0.0136635936797,4624,92
17,-0.0136345569044,4625,92
18,-0.0136195346713,4626,92
19,-0.0135884815827,4627,92
20,-0.0135724507272,4628,92
21,-0.0135223409161,4629,92
22,-0.0134872533381,4630,92
23,-0.0134692052379,4631,92
24,-0.0134321022779,4632,92
25,-0.0133739365265,4633,92
26,-0.0133334882557,4634,92
27,-0.0132917072624,4635,92
28,-0.0132485982031,4636,92
29,-0.0132041657344,4637,92
30,-0.0131584173068,4638,92
31,-0.0131350504234,4639,92
32,-0.0130629930645,4640,92
33,-0.0130383241922,4641,92
34,-0.0129880197346,4642,92
35,-0.0129364319146,4643,92
36,-0.0128835709766,4644,92
37,-0.0128294462338,4645,92
38,-0.0127740688622,4646,92
39,-0.0127459140494,4647,92
40,-0.0126886796206,4648,92
41,-0.0126302223653,4649,92
42,-0.0125402733684,4650,92
43,-0.0124788181856,4651,92
44,-0.0124476505443,4652,92
45,-0.0123524041846,4653,92
46,-0.0122874751687,4654,92
47,-0.012254588306,4655,92
48,-0.0121879791841,4656,92
49,-0.0121202711016,4657,92
50,-0.012086010538,4658,92
51,-0.0119816316292,4659,92
52,-0.0119463140145,4660,92
53,-0.0118388235569,4661,92
54,-0.0117659075186,4662,92
55,-0.0116920117289,4663,92
56,-0.0116171585396,4664,92
57,-0.0115793794394,4665,92
58,-0.0114646675065,4666,92
59,-0.0113870780915,4667,92
60,-0.0113086225465,4668,92
61,-0.0112293269485,4669,92
62,-0.0111492164433,4670,92
63,-0.0111088631675,4671,92
64,-0.0110275754705,4672,92
65,-0.0109455371276,4673,92
66,-0.0108627732843,4674,92
67,-0.0107793109491,4675,92
68,-0.0107373259962,4676,92
69,-0.0106103988364,4677,92
70,-0.0105250058696,4678,92
71,-0.0104820868,4679,92
72,-0.0103524820879,4680,92
73,-0.0102654099464,4681,92
74,-0.0101778348908,4682,92
75,-0.0100897867233,4683,92
76,-0.0100012933835,4684,92
77,-0.0100198062137,4403,92
78,-0.0100439405069,4404,92
79,-0.010114938952,4405,92
80,-0.0101610766724,4406,92
81,-0.010206236504,4407,92
82,-0.0102504026145,4408,92
83,-0.0102721070871,4409,92
84,-0.0103147532791,4410,92
85,-0.0103767877445,4411,92
86,-0.0104168364778,4412,92
87,-0.01045582816,4413,92
88,-0.0104749258608,4414,92
89,-0.0104937553406,4415,92
90,-0.0105486335233,4416,92
91,-0.0105663873255,4417,92
92,-0.0106180245057,4418,92
93,-0.0106346951798,4419,92
94,-0.0106672234833,4420,92
95,-0.0107139842585,4421,92
96,-0.0107438080013,4422,92
97,-0.0107725560665,4423,92
98,-0.0108002331108,4424,92
99,-0.010826847516,4425,92
100,-0.0108524067327,4426,92
101,-0.0108769210055,4427,92
102,-0.0108887897804,4428,92
103,-0.0109117571265,4429,92
104,-0.0109337102622,4430,92
105,-0.0109443105757,4431,92
106,-0.0109746316448,4432,92
107,-0.0109842512757,4433,92
108,-0.0110116815194,4434,92
109,-0.0110288001597,4435,92
110,-0.0110450088978,4436,92
111,-0.0110603272915,4437,92
112,-0.0110747804865,4438,92
113,-0.0110816890374,4439,92
114,-0.0111011816189,4440,92
115,-0.0111131798476,4441,92
116,-0.0111188907176,4442,92
117,-0.0111349048093,4443,92
118,-0.0111398817971,4444,92
119,-0.011144685559,4445,92
120,-0.0111580863595,4446,92
121,-0.0111662149429,4447,92
122,-0.0111700501293,4448,92
123,-0.0111806821078,4449,92
124,-0.0111870821565,4450,92
125,-0.0111929690465,4451,92
126,-0.011195730418,4452,92
127,-0.0112009067088,4453,92
128,-0.011207873933,4454,92
129,-0.0112100001425,4455,92
130,-0.0112139834091,4456,92
131,-0.0112193496898,4457,92
132,-0.0112225702032,4458,92
133,-0.0112240863964,4459,92
134,-0.011226952076,4460,92
135,-0.0112296231091,4461,92
136,-0.0112321339548,4462,92
137,-0.0112345181406,4463,92
138,-0.0112368101254,4464,92
139,-0.0112379323691,4465,92
140,-0.0112412534654,4466,92
141,-0.0112434690818,4467,92
142,-0.0112457238138,4468,92
143,-0.0112468767911,4469,92
144,-0.0112492535263,4470,92
145,-0.0112530514598,4471,92
146,-0.0112543962896,4472,92
147,-0.0112587157637,4473,92
148,-0.0112618729472,4474,92
149,-0.0112635446712,4475,92
150,-0.0112670948729,4476,92
151,-0.0112689789385,4477,92
152,-0.0112729845569,4478,92
153,-0.0112796323374,4479,92
154,-0.0112845292315,4480,92
155,-0.011289825663,4481,92
156,-0.0112926308066,4482,92
157,-0.011301712133,4483,92
158,-0.011308346875,4484,92
159,-0.0113154705614,4485,92
160,-0.0113231027499,4486,92
161,-0.0113312639296,4487,92
162,-0.011339969933,4488,92
163,-0.0113445334136,4489,92
164,-0.0113540887833,4490,92
165,-0.0113642290235,4491,92
166,-0.011369522661,4492,92
167,-0.0113863199949,4493,92
168,-0.0113982949406,4494,92
169,-0.0114109041169,4495,92
170,-0.011417449452,4496,92
171,-0.0114380614832,4497,92
172,-0.0114452606067,4498,92
173,-0.0114601571113,4499,92
174,-0.0114757195115,4500,92
175,-0.0115003250539,4501,92
176,-0.011517573148,4502,92
177,-0.0115354983136,4503,92
178,-0.0115447156131,4504,92
179,-0.0115636568516,4505,92
180,-0.0115832751617,4506,92
181,-0.0116035668179,4507,92
182,-0.0116139641032,4508,92
183,-0.011646155268,4509,92
184,-0.0116684418172,4510,92
185,-0.0116913821548,4511,92
186,-0.0117149669677,4512,92
187,-0.011726998724,4513,92
188,-0.0117640374228,4514,92
189,-0.0117895035073,4515,92
190,-0.0118024637923,4516,92
191,-0.0118288323283,4517,92
192,-0.0118694789708,4518,92
193,-0.0118972854689,4519,92
194,-0.0119113959372,4520,92
195,-0.0119400210679,4521,92
196,-0.0119545320049,4522,92
197,-0.0119839394465,4523,92
198,-0.0120289819315,4524,92
199,-0.0120596056804,4525,92
200,-0.0120750879869,4526,92
201,-0.0121063841507,4527,92
202,-0.0121541181579,4528,92
203,-0.0121864350513,4529,92
204,-0.0122191235423,4530,92
205,-0.0122521622106,4531,92
206,-0.0122855268419,4532,92
207,-0.0123191969469,4533,92
208,-0.0123531473801,4534,92
209,-0.0123702213168,4535,92
210,-0.0124045489356,4536,92
211,-0.0124217970297,4537,92
212,-0.0124738421291,4538,92
213,-0.0125087583438,4539,92
214,-0.0125438226387,4540,92
215,-0.0125790070742,4541,92
216,-0.0126142883673,4542,92
217,-0.0126496395096,4543,92
218,-0.0126850344241,4544,92
219,-0.0127027407289,4545,92
220,-0.012755853124,4546,92
221,-0.0127735454589,4547,92
222,-0.0128265377134,4548,92
223,-0.0128617631271,4549,92
224,-0.0128793353215,4550,92
225,-0.0129143819213,4551,92
226,-0.0129492767155,4552,92
227,-0.0129839936271,4553,92
228,-0.0130185056478,4554,92
229,-0.0130356764421,4555,92
230,-0.0130868116394,4556,92
231,-0.0131205543876,4557,92
232,-0.013153988868,4558,92
233,-0.0131705831736,4559,92
234,-0.0132198315114,4560,92
235,-0.0132521875203,4561,92
236,-0.0132841346785,4562,92
237,-0.0132999476045,4563,92
238,-0.0133312344551,4564,92
239,-0.0133620491251,4565,92
240,-0.0133772715926,4566,92
241,-0.013422165066,4567,92
242,-0.0134368613362,4568,92
243,-0.0134658338502,4569,92
244,-0.0135081997141,4570,92
245,-0.0135220177472,4571,92
246,-0.013549182564,4572,92
247,-0.013575698249,4573,92
248,-0.0136015415192,4574,92
249,-0.013626690954,4575,92
250,-0.0136511260644,4576,92
251,-0.0136863905936,4577,92
252,-0.0137089425698,4578,92
253,-0.0137199228629,4579,92
254,-0.0137516539544,4580,92
255,-0.0137618193403,4581,92
256,-0.0137815158814,4582,92
257,-0.0138003509492,4583,92
258,-0.0138183049858,4584,92
259,-0.0138353593647,4585,92
260,-0.0138514954597,4586,92
261,-0.0138666946441,4587,92
262,-0.0138809382915,4588,92
263,-0.0138876959682,4589,92
264,-0.0139064891264,4590,92
265,-0.0139177618548,4591,92
266,-0.0139230145141,4592,92
267,-0.0139372143894,4593,92
268,-0.013945363462,4594,92
269,-0.0139490365982,4595,92
270,-0.0139555698261,4596,92
271,-0.0139610078186,4597,92
272,-0.0139653347433,4598,92
273,-0.0139670772478,4599,92
274,-0.013969711028,4600,92
275,-0.0139715075493,4601,92
276,-0.0139712514356,4602,92
277,-0.0139698153362,4603,92
278,-0.0139671880752,4604,92
279,-0.0139654232189,4605,92
280,-0.0139583107084,4606,92
281,-0.0139520382509,4607,92
0,-0.0130612133071,4608,93
1,-0.0129378093407,4609,93
2,-0.012750861235,4610,93
3,-0.0126880854368,4611,93
4,-0.012561891228,4612,93
5,-0.012434894219,4613,93
6,-0.012307160534,4614,93
7,-0.0122430380434,4615,93
8,-0.0120497411117,4616,93
9,-0.0119850272313,4617,93
10,-0.0117901572958,4618,93
11,-0.0116597199813,4619,93
12,-0.0115289418027,4620,93
13,-0.01146344468,4621,93
14,-0.0113322790712,4622,93
15,-0.0111352233216,4623,93
16,-0.0110037457198,4624,93
17,-0.0108722606674,4625,93
18,-0.0108065353706,4626,93
19,-0.0106751639396,4627,93
20,-0.0105439508334,4628,93
21,-0.0104129621759,4629,93
22,-0.0103475730866,4630,93
23,-0.0101519199088,4631,93
24,-0.0100219966844,4632,93
25,-0.0100213903934,4456,93
26,-0.0101084122434,4457,93
27,-0.0101964510977,4458,93
28,0.0100082689896,3820,93
29,0.0100473053753,3821,93
30,0.0100863110274,3822,93
31,0.0101057970896,3823,93
32,0.0101447282359,3824,93
33,0.0101835913956,3825,93
34,0.0102029927075,3826,93
35,0.0102417264134,3827,93
36,0.0102996239439,3828,93
37,0.0103380642831,3829,93
38,0.0103763593361,3830,93
39,0.0104144942015,3831,93
40,0.0104334969074,3832,93
41,0.0104713626206,3833,93
42,0.0105277812108,3834,93
43,0.0105651160702,3835,93
44,0.0105836940929,3836,93
45,0.0106390444562,3837,93
46,0.0106756044552,3838,93
47,0.0106937764212,3839,93
48,0.0107298921794,3840,93
49,0.0107478322461,3841,93
50,0.0108011541888,3842,93
51,0.0108187552541,3843,93
52,0.010853683576,3844,93
53,0.0109053617343,3845,93
54,0.0109393112361,3846,93
55,0.0109561281279,3847,93
56,0.0110059250146,3848,93
57,0.0110385529697,3849,93
58,0.0110707050189,3850,93
59,0.011086596176,3851,93
60,0.0111335078254,3852,93
61,0.0111641231924,3853,93
62,0.0111792264506,3854,93
63,0.0112090138718,3855,93
64,0.0112382257357,3856,93
65,0.0112668452784,3857,93
66,0.0112948538736,3858,93
67,0.0113222338259,3859,93
68,0.0113489665091,3860,93
69,0.0113750351593,3861,93
70,0.01140042115,3862,93
71,0.0114251067862,3863,93
72,0.0114371813834,3864,93
73,0.0114723071456,3865,93
74,0.0114947864786,3866,93
75,0.0115164965391,3867,93
76,0.0115374196321,3868,93
77,0.0115475803614,3869,93
78,0.011567289941,3870,93
79,0.0115861706436,3871,93
80,0.0116042047739,3872,93
81,0.0116128996015,3873,93
82,0.011637667194,3874,93
83,0.0116530647501,3875,93
84,0.0116675496101,3876,93
85,0.0116811078042,3877,93
86,0.0116937244311,3878,93
87,0.0116996737197,3879,93
88,0.0117160668597,3880,93
89,0.0117257647216,3881,93
90,0.0117344604805,3882,93
91,0.0117421392351,3883,93
92,0.0117487888783,3884,93
93,0.0117517234758,3885,93
94,0.0117568029091,3886,93
95,0.011760818772,3887,93
96,0.0117637570947,3888,93
97,0.0117656067014,3889,93
98,0.0117661207914,3890,93
99,0.0117659950629,3891,93
100,0.0117653924972,3892,93
101,0.0117633398622,3893,93
102,0.0117581216618,3894,93
103,0.0117558063939,3895,93
104,0.0117503032088,3896,93
105,0.0117398509756,3897,93
106,0.0117314057425,3898,93
107,0.0117217684165,3899,93
108,0.0117164999247,3900,93
109,0.0117109306157,3901,93
110,0.011692407541,3902,93
111,0.0116785373539,3903,93
112,0.0116634434089,3904,93
113,0.0116554349661,3905,93
114,0.0116384923458,3906,93
115,0.0116107529029,3907,93
116,0.0115907052532,3908,93
117,0.0115694077685,3909,93
118,0.0115468567237,3910,93
119,0.0115230502561,3911,93
120,0.0115106748417,3912,93
121,0.0114716589451,3913,93
122,0.0114580234513,3914,93
123,0.0114298053086,3915,93
124,0.0114152226597,3916,93
125,0.0113851111382,3917,93
126,0.0113537367433,3918,93
127,0.0113043095917,3919,93
128,0.0112697836012,3920,93
129,0.0112340003252,3921,93
130,0.0111969616264,3922,93
131,0.0111586721614,3923,93
132,0.0111390594393,3924,93
133,0.0110783549026,3925,93
134,0.011036336422,3926,93
135,0.0109930848703,3927,93
136,0.0109486067668,3928,93
137,0.0109259095043,3929,93
138,0.0108796041459,3930,93
139,0.0108559979126,3931,93
140,0.0108078811318,3932,93
141,0.0107334638014,3933,93
142,0.0106823705137,3934,93
143,0.0106301037595,3935,93
144,0.010576672852,3936,93
145,0.0105220889673,3937,93
146,0.0104663623497,3938,93
147,0.0104380743578,3939,93
148,0.0103806564584,3940,93
149,0.0103221265599,3941,93
150,0.0102322753519,3942,93
151,0.0101710231975,3943,93
152,0.0101087065414,3944,93
153,0.0100771533325,3945,93
154,0.0100453393534,3946,93
155,-0.0102854799479,4459,93
156,-0.0103303566575,4460,93
157,-0.0104208160192,4461,93
158,-0.0104663912207,4462,93
159,-0.0106044542044,4463,93
160,-0.0106975706294,4464,93
161,-0.0107915075496,4465,93
162,-0.010886230506,4466,93
163,-0.0109338751063,4467,93
164,-0.0110297091305,4468,93
165,-0.0111262397841,4469,93
166,-0.0112722562626,4470,93
167,-0.0113703552634,4471,93
168,-0.0114196175709,4472,93
169,-0.0115185398608,4473,93
170,-0.011617956683,4474,93
171,-0.0117178270593,4475,93
172,-0.0118181072176,4476,93
173,-0.0118683874607,4477,93
174,-0.0119691975415,4478,93
175,-0.0120703056455,4479,93
176,-0.0121716633439,4480,93
177,-0.0123240668327,4481,93
178,-0.0124258436263,4482,93
179,-0.0125277023762,4483,93
180,-0.0126295937225,4484,93
181,-0.0127314673737,4485,93
182,-0.0128332739696,4486,93
183,-0.0129349604249,4487,93
184,-0.0130364783108,4488,93
185,-0.0130871562287,4489,93
186,-0.0131883211434,4490,93
187,-0.0132891833782,4491,93
188,-0.0133896935731,4492,93
189,-0.0134897949174,4493,93
190,-0.0135396765545,4494,93
191,-0.0136885624379,4495,93
192,-0.013787118718,4496,93
193,-0.013885053806,4497,93
194,-0.0139823127538,4498,93
195,-0.0140306707472,4499,93
196,-0.0141745815054,4500,93
197,-0.0142694832757,4501,93
198,-0.0143634919077,4502,93
199,-0.0144101446494,4503,93
200,-0.0145486127585,4504,93
201,-0.01459425129,4505,93
202,-0.014684708789,4506,93
203,-0.0147295147181,4507,93
204,-0.0148621629924,4508,93
205,-0.0149490553886,4509,93
206,-0.0150346541777,4510,93
207,-0.0150769520551,4511,93
208,-0.0151605131105,4512,93
209,-0.0152831710875,4513,93
210,-0.0153630804271,4514,93
211,-0.0154414400458,4515,93
212,-0.0154800247401,4516,93
213,-0.0155933182687,4517,93
214,-0.0156667381525,4518,93
215,-0.0157027989626,4519,93
216,-0.0157735869288,4520,93
217,-0.0158083066344,4521,93
218,-0.0158763621002,4522,93
219,-0.0159749072045,4523,93
220,-0.0160381793976,4524,93
221,-0.0160994622856,4525,93
222,-0.0161293447018,4526,93
223,-0.0162158943713,4527,93
224,-0.0162436943501,4528,93
225,-0.0163238793612,4529,93
226,-0.0163746066391,4530,93
227,-0.0163991376758,4531,93
228,-0.016469348222,4532,93
229,-0.0164916086942,4533,93
230,-0.0165549051017,4534,93
231,-0.0165748279542,4535,93
232,-0.0166128855199,4536,93
233,-0.016648536548,4537,93
234,-0.016665449366,4538,93
235,-0.0166974291205,4539,93
236,-0.0167407449335,4540,93
237,-0.0167664792389,4541,93
238,-0.0167783945799,4542,93
239,-0.016810297966,4543,93
240,-0.0168283358216,4544,93
241,-0.0168437678367,4545,93
242,-0.0168565753847,4546,93
243,-0.0168667379767,4547,93
244,-0.016874242574,4548,93
245,-0.0168790742755,4549,93
246,-0.0168804824352,4550,93
247,-0.0168812796474,4551,93
248,-0.0168793741614,4552,93
249,-0.0168774053454,4553,93
250,-0.0168714281172,4554,93
251,-0.0168573539704,4555,93
252,-0.0168445575982,4556,93
253,-0.0168290287256,4557,93
254,-0.0168202389032,4558,93
255,-0.0168006066233,4559,93
256,-0.016778236255,4560,93
257,-0.0167395584285,4561,93
258,-0.0167103614658,4562,93
259,-0.0166784431785,4563,93
260,-0.016661465168,4564,93
261,-0.0166254788637,4565,93
262,-0.016586791724,4566,93
263,-0.0165454186499,4567,93
264,-0.0165237262845,4568,93
265,-0.0164783429354,4569,93
266,-0.0164052993059,4570,93
267,-0.0163796339184,4571,93
268,-0.0162987187505,4572,93
269,-0.016241537407,4573,93
270,-0.0162119846791,4574,93
271,-0.016150964424,4575,93
272,-0.0160546991974,4576,93
273,-0.0160213615745,4577,93
274,-0.01591764763,4578,93
275,-0.0158818550408,4579,93
276,-0.0157708711922,4580,93
277,-0.0157326869667,4581,93
278,-0.0156939141452,4582,93
279,-0.0155741116032,4583,93
280,-0.0154913822189,4584,93
281,-0.0154064092785,4585,93
282,-0.0153630934656,4586,93
283,-0.0152298882604,4587,93
284,-0.015138422139,4588,93
285,-0.015044875443,4589,93
286,-0.0149492938071,4590,93
287,-0.0149007532746,4591,93
288,-0.0147522035986,4592,93
289,-0.0147017305717,4593,93
290,-0.0145993866026,4594,93
291,-0.014495219104,4595,93
292,-0.0143892792985,4596,93
293,-0.0143356611952,4597,93
294,-0.0141722932458,4598,93
295,-0.0140613531694,4599,93
296,-0.013948854059,4600,93
297,-0.0138348517939,4601,93
298,-0.0137194041163,4602,93
299,-0.0136025678366,4603,93
300,-0.013543647714,4604,93
301,-0.0133649650961,4605,93
302,-0.0132443187758,4606,93
303,-0.0131225232035,4607,93
0,-0.0126830441877,4608,94
1,-0.0126663884148,4609,94
2,-0.0126498993486,4610,94
3,-0.0126417092979,4611,94
4,-0.0126254195347,4612,94
5,-0.0126173142344,4613,94
6,-0.012601162307,4614,94
7,-0.0125770289451,4615,94
8,-0.0125609580427,4616,94
9,-0.0125448638573,4617,94
10,-0.0125367976725,4618,94
11,-0.0125124687329,4619,94
12,-0.0124960970134,4620,94
13,-0.0124878510833,4621,94
14,-0.0124628217891,4622,94
15,-0.0124543644488,4623,94
16,-0.0124285835773,4624,94
17,-0.0124198365957,4625,94
18,-0.0124020827934,4626,94
19,-0.0123930657282,4627,94
20,-0.0123747261241,4628,94
21,-0.0123559441417,4629,94
22,-0.0123268496245,4630,94
23,-0.0123067777604,4631,94
24,-0.0122861154377,4632,94
25,-0.0122648216784,4633,94
26,-0.0122428527102,4634,94
27,-0.0122201675549,4635,94
28,-0.0121967233717,4636,94
29,-0.0121847027913,4637,94
30,-0.0121473902836,4638,94
31,-0.012121418491,4639,94
32,-0.0120945228264,4640,94
33,-0.0120807159692,4641,94
34,-0.0120666632429,4642,94
35,-0.0120229804888,4643,94
36,-0.0119925392792,4644,94
37,-0.0119609981775,4645,94
38,-0.0119283217937,4646,94
39,-0.0119115468115,4647,94
40,-0.0118771009147,4648,94
41,-0.0118231307715,4649,94
42,-0.0117855677381,4650,94
43,-0.0117467036471,4651,94
44,-0.0117267742753,4652,94
45,-0.0116649530828,4653,94
46,-0.0116220125929,4654,94
47,-0.0116000138223,4655,94
48,-0.0115549480543,4656,94
49,-0.0115318736061,4657,94
50,-0.0114604569972,4658,94
51,-0.0114359110594,4659,94
52,-0.0113600231707,4660,94
53,-0.011307535693,4661,94
54,-0.0112535152584,4662,94
55,-0.011197950691,4663,94
56,-0.0111695853993,4664,94
57,-0.0111116860062,4665,94
58,-0.0110218981281,4666,94
59,-0.0109911831096,4667,94
60,-0.01089667622,4668,94
61,-0.0108317025006,4669,94
62,-0.0107651567087,4670,94
63,-0.0107312947512,4671,94
64,-0.0106623973697,4672,94
65,-0.0106273647398,4673,94
66,-0.010556133464,4674,94
67,-0.0104463966563,4675,94
68,-0.0104090534151,4676,94
69,-0.0103332316503,4677,94
70,-0.0102559095249,4678,94
71,-0.0101771075279,4679,94
72,-0.0100561734289,4680,94
73,-0.0100151458755,4681,94
74,0.0100088007748,3836,94
75,0.0100177563727,3837,94
76,0.0100264810026,3838,94
77,0.0100307567045,3839,94
78,0.0100391330197,3840,94
79,0.0100472765043,3841,94
80,0.0100551880896,3842,94
81,0.0100590568036,3843,94
82,0.0100666200742,3844,94
83,0.0100775267929,3845,94
84,0.0100845033303,3846,94
85,0.0100879026577,3847,94
86,0.0100945243612,3848,94
87,0.0101009085774,3849,94
88,0.0101100346074,3850,94
89,0.0101158162579,3851,94
90,0.0101213520393,3852,94
91,0.0101266428828,3853,94
92,0.010129195638,3854,94
93,0.0101316850632,3855,94
94,0.0101364757866,3856,94
95,0.0101410122588,3857,94
96,0.0101473350078,3858,94
97,0.0101493122056,3859,94
98,0.0101530682296,3860,94
99,0.0101582007483,3861,94
100,0.0101612824947,3862,94
101,0.0101640885696,3863,94
102,0.0101666143164,3864,94
103,0.0101688550785,3865,94
104,0.0101708061993,3866,94
105,0.0101724639535,3867,94
106,0.0101738246158,3868,94
107,0.0101748807356,3869,94
108,0.0101752933115,3870,94
109,0.0101758847013,3871,94
110,0.0101761603728,3872,94
111,0.0101761138067,3873,94
112,0.0101759685203,3874,94
113,0.0101750334725,3875,94
114,0.0101739894599,3876,94
115,0.0101726008579,3877,94
116,0.0101717757061,3878,94
117,0.0101687684655,3879,94
118,0.0101675866172,3880,94
119,0.0101634915918,3881,94
120,0.0101602962241,3882,94
121,0.0101567208767,3883,94
122,0.0101527608931,3884,94
