,amplitude,tstep,vfp
0,0.0100048240274,3712,92
1,0.0100147118792,3713,92
2,0.0100240902975,3714,92
3,0.0100329509005,3715,92
4,0.0100412862375,3716,92
5,0.0100490888581,3717,92
6,0.0100527880713,3718,92
7,0.0100563513115,3719,92
8,0.0100630670786,3720,92
9,0.0100692296401,3721,92
10,0.0100774252787,3722,92
11,0.0100821834058,3723,92
12,0.0100863715634,3724,92
13,0.010088250041,3725,92
14,0.0100915757939,3726,92
15,0.0100954780355,3727,92
16,0.0100964875892,3728,92
17,0.0100986398757,3729,92
18,0.0100993411615,3730,92
19,0.010099472478,3731,92
20,0.0100989835337,3732,92
21,0.0100985271856,3733,92
22,0.0100979227573,3734,92
23,0.0100952293724,3735,92
24,0.0100927008316,3736,92
25,0.0100895874202,3737,92
26,0.0100858910009,3738,92
27,0.0100838243961,3739,92
28,0.0100767575204,3740,92
29,0.0100713269785,3741,92
30,0.010068397969,3742,92
31,0.0100587559864,3743,92
32,0.0100516239181,3744,92
33,0.0100478483364,3745,92
34,0.0100356908515,3746,92
35,0.0100268991664,3747,92
36,0.0100175663829,3748,92
37,0.0100126992911,3749,92
38,0.0100076990202,3750,92
39,-0.0100193638355,4311,92
40,-0.0100542493165,4312,92
41,-0.0101575711742,4313,92
42,-0.0101915504783,4314,92
43,-0.0102587891743,4315,92
44,-0.0103250415996,4316,92
45,-0.0104224951938,4317,92
46,-0.0104861343279,4318,92
47,-0.0105486763641,4319,92
48,-0.0105795264244,4320,92
49,-0.0106403697282,4321,92
50,-0.0107000498101,4322,92
51,-0.0107585433871,4323,92
52,-0.0108158281073,4324,92
53,-0.0108718844131,4325,92
54,-0.0108994469047,4326,92
55,-0.0109536293894,4327,92
56,-0.0110325189307,4328,92
57,-0.0110581731424,4329,92
58,-0.0111331921071,4330,92
59,-0.0111815752462,4331,92
60,-0.0112052736804,4332,92
61,-0.0112743964419,4333,92
62,-0.0113188289106,4334,92
63,-0.0113619407639,4335,92
64,-0.0114037320018,4336,92
65,-0.0114442063496,4337,92
66,-0.0114833693951,4338,92
67,-0.0115024605766,4339,92
68,-0.0115212267265,4340,92
69,-0.0115755833685,4341,92
70,-0.0116102155298,4342,92
71,-0.0116435792297,4343,92
72,-0.0116597898304,4344,92
73,-0.011691275984,4345,92
74,-0.0117362048477,4346,92
75,-0.0117646511644,4347,92
76,-0.0117784291506,4348,92
77,-0.0118180187419,4349,92
78,-0.0118429856375,4350,92
79,-0.0118668414652,4351,92
80,-0.0118896104395,4352,92
81,-0.0119005963206,4353,92
82,-0.0119217885658,4354,92
83,-0.0119419666007,4355,92
84,-0.0119611602277,4356,92
85,-0.0119703980163,4357,92
86,-0.0119881732389,4358,92
87,-0.0120131513104,4359,92
88,-0.0120287286118,4360,92
89,-0.0120362089947,4361,92
90,-0.0120574655011,4362,92
91,-0.0120706949383,4363,92
92,-0.012083215639,4364,92
93,-0.012089220807,4365,92
94,-0.0121062770486,4366,92
95,-0.0121168941259,4367,92
96,-0.0121219912544,4368,92
97,-0.0121317850426,4369,92
98,-0.0121364919469,4370,92
99,-0.0121499123052,4371,92
100,-0.012158322148,4372,92
101,-0.0121663501486,4373,92
102,-0.0121740335599,4374,92
103,-0.012181410566,4375,92
104,-0.0121849961579,4376,92
105,-0.0121919857338,4377,92
106,-0.0121987648308,4378,92
107,-0.012208619155,4379,92
108,-0.0122118387371,4380,92
109,-0.0122213652357,4381,92
110,-0.0122245112434,4382,92
111,-0.0122307846323,4383,92
112,-0.0122370617464,4384,92
113,-0.0122402124107,4385,92
114,-0.0122497584671,4386,92
115,-0.0122529854998,4387,92
116,-0.0122628565878,4388,92
117,-0.0122696319595,4389,92
118,-0.0122765963897,4390,92
119,-0.0122837768868,4391,92
120,-0.0122911995277,4392,92
121,-0.0122950095683,4393,92
122,-0.0123028401285,4394,92
123,-0.0123151578009,4395,92
124,-0.0123237799853,4396,92
125,-0.0123327532783,4397,92
126,-0.0123420963064,4398,92
127,-0.0123469112441,4399,92
128,-0.0123568372801,4400,92
129,-0.0123671703041,4401,92
130,-0.0123779233545,4402,92
131,-0.012389106676,4403,92
132,-0.012400730513,4404,92
133,-0.0124128032476,4405,92
134,-0.0124190095812,4406,92
135,-0.0124317668378,4407,92
136,-0.0124517688528,4408,92
137,-0.0124656837434,4409,92
138,-0.0124728158116,4410,92
139,-0.0124949095771,4411,92
140,-0.0125102167949,4412,92
141,-0.0125259812921,4413,92
142,-0.0125340335071,4414,92
143,-0.0125421974808,4415,92
144,-0.0125588579103,4416,92
145,-0.0125759541988,4417,92
146,-0.0126023963094,4418,92
147,-0.0126114170998,4419,92
148,-0.0126390755177,4420,92
149,-0.0126484883949,4421,92
150,-0.012677279301,4422,92
151,-0.0126969134435,4423,92
152,-0.0127168782055,4424,92
153,-0.0127269793302,4425,92
154,-0.0127577260137,4426,92
155,-0.0127785671502,4427,92
156,-0.0127996578813,4428,92
157,-0.0128102898598,4429,92
158,-0.0128317121416,4430,92
159,-0.0128533262759,4431,92
160,-0.0128751052544,4432,92
161,-0.0128970248625,4433,92
162,-0.0129190599546,4434,92
163,-0.0129411835223,4435,92
164,-0.0129633676261,4436,92
165,-0.0129744745791,4437,92
166,-0.0130078112707,4438,92
167,-0.0130300149322,4439,92
168,-0.0130521673709,4440,92
169,-0.0130742415786,4441,92
170,-0.0130962077528,4442,92
171,-0.0131180370227,4443,92
172,-0.0131288915873,4444,92
173,-0.0131504638121,4445,92
174,-0.0131611740217,4446,92
175,-0.0131929563358,4447,92
176,-0.0132034225389,4448,92
177,-0.0132343880832,4449,92
178,-0.0132445544004,4450,92
179,-0.0132646327838,4451,92
180,-0.0132940625772,4452,92
181,-0.0133131854236,4453,92
182,-0.013331880793,4454,92
183,-0.0133501216769,4455,92
184,-0.0133678838611,4456,92
185,-0.0133851421997,4457,92
186,-0.0133935753256,4458,92
187,-0.0134180551395,4459,92
188,-0.0134259322658,4460,92
189,-0.0134412460029,4461,92
190,-0.0134486770257,4462,92
191,-0.013470036909,4463,92
192,-0.0134834740311,4464,92
193,-0.0134962471202,4465,92
194,-0.0135083375499,4466,92
195,-0.013519727625,4467,92
196,-0.013530401513,4468,92
197,-0.0135403433815,4469,92
198,-0.0135495392606,4470,92
199,-0.0135579751804,4471,92
200,-0.0135656381026,4472,92
201,-0.0135725149885,4473,92
202,-0.0135756563395,4474,92
203,-0.0135813355446,4475,92
204,-0.013583871536,4476,92
205,-0.0135902529582,4477,92
206,-0.0135934725404,4478,92
207,-0.0135958576575,4479,92
208,-0.0135967349634,4480,92
209,-0.0135978562757,4481,92
210,-0.0135981263593,4482,92
211,-0.0135969314724,4483,92
212,-0.013595062308,4484,92
213,-0.0135923316702,4485,92
214,-0.0135887386277,4486,92
215,-0.0135842822492,4487,92
216,-0.0135789625347,4488,92
217,-0.0135727794841,4489,92
218,-0.0135693643242,4490,92
219,-0.0135657340288,4491,92
220,-0.0135535532609,4492,92
221,-0.0135443611071,4493,92
222,-0.0135394446552,4494,92
223,-0.0135234184563,4495,92
224,-0.0135116763413,4496,92
225,-0.0134990913793,4497,92
226,-0.0134856691584,4498,92
227,-0.0134714152664,4499,92
228,-0.0134563343599,4500,92
229,-0.0134484861046,4501,92
230,-0.0134237175807,4502,92
231,-0.0134061919525,4503,92
232,-0.0133878653869,4504,92
233,-0.0133784040809,4505,92
234,-0.0133588882163,4506,92
235,-0.0133385872468,4507,92
236,-0.0133281443268,4508,92
237,-0.0132956588641,4509,92
238,-0.0132844476029,4510,92
239,-0.0132496766746,4511,92
240,-0.0132255572826,4512,92
241,-0.0132006956264,4513,92
242,-0.0131750991568,4514,92
243,-0.0131487753242,4515,92
244,-0.0131353428587,4516,92
245,-0.0130939688534,4517,92
246,-0.0130798220634,4518,92
247,-0.0130363292992,4519,92
248,-0.013021483086,4520,92
249,-0.0129912719131,4521,92
250,-0.0129603752866,4522,92
251,-0.0129446713254,4523,92
252,-0.0128965443,4524,92
253,-0.0128636211157,4525,92
254,-0.0128300320357,4526,92
255,-0.0128129897639,4527,92
256,-0.0127608785406,4528,92
257,-0.0127253225073,4529,92
258,-0.0126891173422,4530,92
259,-0.0126707730815,4531,92
260,-0.0126147763804,4532,92
261,-0.0125766471028,4533,92
262,-0.0125573435798,4534,92
263,-0.0125182615593,4535,92
264,-0.0124984839931,4536,92
265,-0.0124584529549,4537,92
266,-0.0124177932739,4538,92
267,-0.0123765058815,4539,92
268,-0.0123133976012,4540,92
269,-0.0122705437243,4541,92
270,-0.0122488820925,4542,92
271,-0.0121829584241,4543,92
272,-0.0121382270008,4544,92
273,-0.0121156265959,4545,92
274,-0.0120699573308,4546,92
275,-0.0120002785698,4547,92
276,-0.0119530400261,4548,92
277,-0.0119051728398,4549,92
278,-0.0118810031563,4550,92
279,-0.0118321897462,4551,92
280,-0.0118075450882,4552,92
281,-0.0117326611653,4553,92
282,-0.0116819432005,4554,92
283,-0.0116305854172,4555,92
284,-0.0115785868838,4556,92
285,-0.0115523468703,4557,92
286,-0.0114993834868,4558,92
287,-0.0114187253639,4559,92
288,-0.0113641414791,4560,92
289,-0.0113089047372,4561,92
290,-0.0112530123442,4562,92
291,-0.0111964615062,4563,92
292,-0.011167938821,4564,92
293,-0.0111103979871,4565,92
294,-0.0110521940514,4566,92
295,-0.0109933260828,4567,92
296,-0.0109337894246,4568,92
297,-0.0109037701041,4569,92
298,-0.010812706314,4570,92
299,-0.0107511552051,4571,92
300,-0.0107201263309,4572,92
301,-0.0106260282919,4573,92
302,-0.0105624487624,4574,92
303,-0.0104981921613,4575,92
304,-0.0104332556948,4576,92
305,-0.0103676393628,4577,92
306,-0.0103013440967,4578,92
307,-0.010234368965,4579,92
308,-0.0101667158306,4580,92
309,-0.0101326340809,4581,92
310,-0.0100639620796,4582,92
311,-0.0100293718278,4583,92
0,0.0100229848176,3732,93
1,0.0100440680981,3733,93
2,0.0100862616673,3734,93
3,0.0101284775883,3735,93
4,0.0101495897397,3736,93
5,0.0102129131556,3737,93
6,0.0102550964803,3738,93
7,0.0102972341701,3739,93
8,0.0103393103927,3740,93
9,0.0103813065216,3741,93
10,0.0104232039303,3742,93
11,0.0104649849236,3743,93
12,0.0104858251289,3744,93
13,0.0105481194332,3745,93
14,0.0105688013136,3746,93
15,0.0106305601075,3747,93
16,0.0106714731082,3748,93
17,0.0106918439269,3749,93
18,0.0107324011624,3750,93
19,0.0107525829226,3751,93
20,0.0108127100393,3752,93
21,0.0108326049522,3753,93
22,0.0108918109909,3754,93
23,0.0109308566898,3755,93
24,0.0109695382416,3756,93
25,0.0109887355939,3757,93
26,0.0110457241535,3758,93
27,0.0110831875354,3759,93
28,0.0111202010885,3760,93
29,0.011156745255,3761,93
30,0.0111927976832,3762,93
31,0.0112283369526,3763,93
32,0.0112459072843,3764,93
33,0.0112806353718,3765,93
34,0.0113147972152,3766,93
35,0.0113483686,3767,93
36,0.0113649265841,3768,93
37,0.0113975731656,3769,93
38,0.0114295752719,3770,93
39,0.0114763239399,3771,93
40,0.0115066198632,3772,93
41,0.011521499604,3773,93
42,0.0115650305524,3774,93
43,0.0115791624412,3775,93
44,0.0116203865036,3776,93
45,0.0116337276995,3777,93
46,0.0116597935557,3778,93
47,0.0116850212216,3779,93
48,0.0117093883455,3780,93
49,0.0117212431505,3781,93
50,0.0117442803457,3782,93
51,0.011777119711,3783,93
52,0.011797837913,3784,93
53,0.0118175912648,3785,93
54,0.01183636114,3786,93
55,0.0118453707546,3787,93
56,0.011870868504,3788,93
57,0.0118865678087,3789,93
58,0.0118940202519,3790,93
59,0.0119147598743,3791,93
60,0.0119272153825,3792,93
61,0.0119385542348,3793,93
62,0.0119437985122,3794,93
63,0.0119534255937,3795,93
64,0.0119618913159,3796,93
65,0.011969178915,3797,93
66,0.0119752697647,3798,93
67,0.011980149895,3799,93
68,0.0119838025421,3800,93
69,0.0119862118736,3801,93
70,0.0119873629883,3802,93
71,0.0119872419164,3803,93
72,0.0119866998866,3804,93
73,0.0119831264019,3805,93
74,0.0119812814519,3806,93
75,0.0119765996933,3807,93
76,0.0119670787826,3808,93
77,0.0119632324204,3809,93
78,0.0119545217603,3810,93
79,0.0119444467127,3811,93
80,0.011932997033,3812,93
81,0.0119267525151,3813,93
82,0.011905932799,3814,93
83,0.0118982931599,3815,93
84,0.0118732638657,3816,93
85,0.0118642142043,3817,93
86,0.0118349306285,3818,93
87,0.0118244569749,3819,93
88,0.0117908846587,3820,93
89,0.0117667065933,3821,93
90,0.0117540769279,3822,93
91,0.0117140216753,3823,93
92,0.0116999465972,3824,93
93,0.0116707095876,3825,93
94,0.0116555476561,3826,93
95,0.0116241360083,3827,93
96,0.01159127336,3828,93
97,0.0115392636508,3829,93
98,0.0115027781576,3830,93
99,0.0114839933813,3831,93
100,0.0114453407004,3832,93
101,0.0113846603781,3833,93
102,0.0113424118608,3834,93
103,0.0113207511604,3835,93
104,0.0112763587385,3836,93
105,0.0112305460498,3837,93
106,0.011183318682,3838,93
107,0.0111346840858,3839,93
108,0.0110846515745,3840,93
109,0.0110332295299,3841,93
110,0.0110069997609,3842,93
111,0.0109262568876,3843,93
112,0.0108707267791,3844,93
113,0.0108424574137,3845,93
114,0.0107556441799,3846,93
115,0.0106961159036,3847,93
116,0.010635281913,3848,93
117,0.0106043796986,3849,93
118,0.0105097554624,3850,93
119,0.0104450946674,3851,93
120,0.0104122972116,3852,93
121,0.010345778428,3853,93
122,0.0102780433372,3854,93
123,0.0102437250316,3855,93
124,0.0101741980761,3856,93
125,0.0101035013795,3857,93
126,0.0100316554308,3858,93
127,-0.0101011609659,4376,93
128,-0.0102193793282,4377,93
129,-0.0103391772136,4378,93
130,-0.0104605071247,4379,93
131,-0.0105217304081,4380,93
132,-0.0107075534761,4381,93
133,-0.0108331628144,4382,93
134,-0.0109600881115,4383,93
135,-0.0110240262002,4384,93
136,-0.0111528160051,4385,93
137,-0.0112176528201,4386,93
138,-0.0114138359204,4387,93
139,-0.0115459375083,4388,93
140,-0.011679014191,4389,93
141,-0.0117458961904,4390,93
142,-0.0119478208944,4391,93
143,-0.0120155243203,4392,93
144,-0.0121514722705,4393,93
145,-0.0123566091061,4394,93
146,-0.0124940704554,4395,93
147,-0.012632005848,4396,93
148,-0.012770337984,4397,93
149,-0.0128396293148,4398,93
150,-0.0129784131423,4399,93
151,-0.0131173990667,4400,93
152,-0.0131869418547,4401,93
153,-0.0133260795847,4402,93
154,-0.0135347591713,4403,93
155,-0.0136042712256,4404,93
156,-0.0138125196099,4405,93
157,-0.0139510063455,4406,93
158,-0.0140891186893,4407,93
159,-0.0142267718911,4408,93
160,-0.0143638802692,4409,93
161,-0.0144322039559,4410,93
162,-0.014568336308,4411,93
163,-0.0147037105635,4412,93
164,-0.0149051621556,4413,93
165,-0.0149718401954,4414,93
166,-0.0151044242084,4415,93
167,-0.0152359064668,4416,93
168,-0.015366201289,4417,93
169,-0.0154308769852,4418,93
170,-0.0156228886917,4419,93
171,-0.0157491080463,4420,93
172,-0.0158738028258,4421,93
173,-0.0159968882799,4422,93
174,-0.0160578005016,4423,93
175,-0.0162378940731,4424,93
176,-0.0163556504995,4425,93
177,-0.016413807869,4426,93
178,-0.0165852699429,4427,93
179,-0.0166969709098,4428,93
180,-0.0167520102113,4429,93
181,-0.016860416159,4430,93
182,-0.0169665310532,4431,93
183,-0.017070280388,4432,93
184,-0.0171212423593,4433,93
185,-0.0172212999314,4434,93
186,-0.017366586253,4435,93
187,-0.0174601394683,4436,93
188,-0.0175509657711,4437,93
189,-0.0175953358412,4438,93
190,-0.0177241750062,4439,93
191,-0.0178064294159,4440,93
192,-0.0178856980056,4441,93
193,-0.0179619211704,4442,93
194,-0.0179988723248,4443,93
195,-0.018070416525,4444,93
196,-0.0181387718767,4445,93
197,-0.0182038825005,4446,93
198,-0.0182656962425,4447,93
199,-0.0182953495532,4448,93
200,-0.0183792263269,4449,93
201,-0.0184308495373,4450,93
202,-0.0184789858758,4451,93
203,-0.0185017324984,4452,93
204,-0.0185445547104,4453,93
205,-0.0185837838799,4454,93
206,-0.0186358150095,4455,93
207,-0.0186659079045,4456,93
208,-0.0186922885478,4457,93
209,-0.0187040772289,4458,93
210,-0.0187337901443,4459,93
211,-0.0187418013811,4460,93
212,-0.0187549646944,4461,93
213,-0.0187643002719,4462,93
214,-0.0187675245106,4463,93
215,-0.0187710765749,4464,93
216,-0.0187707543373,4465,93
217,-0.0187629740685,4466,93
218,-0.0187529101968,4467,93
219,-0.0187389310449,4468,93
220,-0.0187210347503,4469,93
221,-0.0187106151134,4470,93
222,-0.0186734739691,4471,93
223,-0.0186591316015,4472,93
224,-0.0186102241278,4473,93
225,-0.0185727253556,4474,93
226,-0.0185525119305,4475,93
227,-0.0185091607273,4476,93
228,-0.018461920321,4477,93
229,-0.0184108056128,4478,93
230,-0.0183837991208,4479,93
231,-0.0182970184833,4480,93
232,-0.0182661786675,4481,93
233,-0.0182016473264,4482,93
234,-0.0181333292276,4483,93
235,-0.018023820594,4484,93
236,-0.0179461631924,4485,93
237,-0.0178648289293,4486,93
238,-0.0178227908909,4487,93
239,-0.0177359972149,4488,93
240,-0.0175990797579,4489,93
241,-0.0175516661257,4490,93
242,-0.0174542125314,4491,93
243,-0.017353290692,4492,93
244,-0.0172489471734,4493,93
245,-0.0171955041587,4494,93
246,-0.0170301795006,4495,93
247,-0.0169734247029,4496,93
248,-0.0167983155698,4497,93
249,-0.0166776031256,4498,93
250,-0.0166160780936,4499,93
251,-0.0164269153029,4500,93
252,-0.0162970535457,4501,93
253,-0.0162310209125,4502,93
254,-0.0160286128521,4503,93
255,-0.0158901624382,4504,93
256,-0.0158199090511,4505,93
257,-0.0156773887575,4506,93
258,-0.0156051376835,4507,93
259,-0.0153845343739,4508,93
260,-0.0153097463772,4509,93
261,-0.015081750229,4510,93
262,-0.0150045715272,4511,93
263,-0.014769631438,4512,93
264,-0.0146102644503,4513,93
265,-0.0144487973303,4514,93
266,-0.0142853101715,4515,93
267,-0.0142028350383,4516,93
268,-0.0139526054263,4517,93
269,-0.0137835545465,4518,93
270,-0.013698390685,4519,93
271,-0.0135268410668,4520,93
272,-0.0134404767305,4521,93
273,-0.0131791541353,4522,93
274,-0.0130031919107,4523,93
275,-0.0128259342164,4524,93
276,-0.0127368476242,4525,93
277,-0.0125578148291,4526,93
278,-0.0122872861102,4527,93
279,-0.0121057461947,4528,93
280,-0.011923362501,4529,93
281,-0.0117402262986,4530,93
282,-0.011648404412,4531,93
283,-0.0113720670342,4532,93
284,-0.0111872283742,4533,93
285,-0.0110020060092,4534,93
286,-0.0109092798084,4535,93
287,-0.0107236569747,4536,93
288,-0.0105378823355,4537,93
289,-0.0103520490229,4538,93
290,-0.010166249238,4539,93
291,-0.0100733907893,4540,93
0,0.0100031988695,3734,94
1,0.0100168688223,3735,94
2,0.0100235883147,3736,94
3,0.0100432746112,3737,94
4,0.0100496793166,3738,94
5,0.0100684175268,3739,94
6,0.0100805098191,3740,94
7,0.0100922798738,3741,94
8,0.0101037267596,3742,94
9,0.0101093286648,3743,94
10,0.0101202866063,3744,94
11,0.0101309157908,3745,94
12,0.0101412124932,3746,94
13,0.010156031698,3747,94
14,0.0101608037949,3748,94
15,0.0101700946689,3749,94
16,0.0101790456101,3750,94
17,0.0101833930239,3751,94
18,0.0101959193125,3752,94
19,0.0102038364857,3753,94
20,0.0102076632902,3754,94
21,0.0102186175063,3755,94
22,0.0102254766971,3756,94
23,0.0102319791913,3757,94
24,0.0102381203324,3758,94
25,0.0102438982576,3759,94
26,0.0102493083104,3760,94
27,0.0102543467656,3761,94
28,0.0102590117604,3762,94
29,0.0102633005008,3763,94
30,0.010265301913,3764,94
31,0.0102672083303,3765,94
32,0.0102723482996,3766,94
33,0.0102738663554,3767,94
34,0.0102766063064,3768,94
35,0.0102799730375,3769,94
36,0.0102817146108,3770,94
37,0.0102830482647,3771,94
38,0.0102839693427,3772,94
39,0.0102844731882,3773,94
40,0.0102845681831,3774,94
41,0.0102842152119,3775,94
42,0.0102838827297,3776,94
43,0.0102822305635,3777,94
44,0.0102814603597,3778,94
45,0.0102795865387,3779,94
46,0.0102772647515,3780,94
47,0.0102744894102,3781,94
48,0.0102712539956,3782,94
49,0.0102675547823,3783,94
50,0.0102655291557,3784,94
51,0.0102587416768,3785,94
52,0.0102536184713,3786,94
53,0.010250874795,3787,94
54,0.0102419117466,3788,94
55,0.0102353179827,3789,94
56,0.010231833905,3790,94
57,0.0102206254378,3791,94
58,0.0102125164121,3792,94
59,0.0102038932964,3793,94
60,0.0101993866265,3794,94
61,0.0101899830624,3795,94
62,0.0101850843057,3796,94
63,0.0101748900488,3797,94
64,0.0101586002856,3798,94
65,0.0101470695809,3799,94
66,0.0101349968463,3800,94
67,0.0101287560537,3801,94
68,0.0101092122495,3802,94
69,0.0101024219766,3803,94
70,0.0100812232122,3804,94
71,0.0100663956255,3805,94
72,0.0100510101765,3806,94
73,0.0100350650027,3807,94
74,0.0100268824026,3808,94
75,0.0100100934505,3809,94
76,0.01000148803,3810,94
77,-0.0100173410028,4351,94
78,-0.0100946230814,4352,94
79,-0.0101727480069,4353,94
80,-0.0102121178061,4354,94
81,-0.0102914571762,4355,94
82,-0.0103715714067,4356,94
83,-0.0104524334893,4357,94
84,-0.0104931360111,4358,94
85,-0.0106162782758,4359,94
86,-0.0106576588005,4360,94
87,-0.0107408920303,4361,94
88,-0.0108668589965,4362,94
89,-0.010951529257,4363,94
90,-0.011036708951,4364,94
91,-0.0111223580316,4365,94
92,-0.0112084373832,4366,94
93,-0.0112516246736,4367,94
94,-0.0113817173988,4368,94
95,-0.011425239034,4369,94
96,-0.0115124862641,4370,94
97,-0.0115561997518,4371,94
98,-0.0116437776014,4372,94
99,-0.0117315175012,4373,94
100,-0.0118633229285,4374,94
101,-0.0119072850794,4375,94
102,-0.0120391668752,4376,94
103,-0.0121270176023,4377,94
104,-0.0122147500515,4378,94
105,-0.0123023092747,4379,94
106,-0.0123460078612,4380,94
