,amplitude,tstep,vfp
0,-0.0100080957636,4618,92
1,-0.0100389905274,4619,92
2,-0.0100696617737,4620,92
3,-0.010100113228,4621,92
4,-0.010130347684,4622,92
5,-0.0101603707299,4623,92
6,-0.0101901851594,4624,92
7,-0.0102197956294,4625,92
8,-0.0102345254272,4626,92
9,-0.0102492067963,4627,92
10,-0.0102929584682,4628,92
11,-0.0103218890727,4629,92
12,-0.0103506362066,4630,92
13,-0.0103792045265,4631,92
14,-0.0104075986892,4632,92
15,-0.0104217333719,4633,92
16,-0.0104638896883,4634,92
17,-0.0104917967692,4635,92
18,-0.0105195520446,4636,92
19,-0.0105471620336,4637,92
20,-0.0105746323243,4638,92
21,-0.0106019685045,4639,92
22,-0.0106155881658,4640,92
23,-0.0106427362189,4641,92
24,-0.0106697669253,4642,92
25,-0.0106966849416,4643,92
26,-0.0107234995812,4644,92
27,-0.0107502164319,4645,92
28,-0.0107768438756,4646,92
29,-0.0108033875003,4647,92
30,-0.0108166290447,4648,92
31,-0.010856250301,4649,92
32,-0.0108825862408,4650,92
33,-0.0108957327902,4651,92
34,-0.0109219886363,4652,92
35,-0.0109612932429,4653,92
36,-0.0109743764624,4654,92
37,-0.0110005233437,4655,92
38,-0.0110266488045,4656,92
39,-0.0110397068784,4657,92
40,-0.0110788699239,4658,92
41,-0.0111049804837,4659,92
42,-0.0111311003566,4660,92
43,-0.011144165881,4661,92
44,-0.0111833987758,4662,92
45,-0.0112095940858,4663,92
46,-0.0112358294427,4664,92
47,-0.0112489648163,4665,92
48,-0.0112884519622,4666,92
49,-0.0113016450778,4667,92
50,-0.0113280816004,4668,92
51,-0.011367877014,4669,92
52,-0.0113945128396,4670,92
53,-0.01140786428,4671,92
54,-0.0114212399349,4672,92
55,-0.0114615205675,4673,92
56,-0.0114750005305,4674,92
57,-0.0115156136453,4675,92
58,-0.0115292118862,4676,92
59,-0.0115701975301,4677,92
60,-0.0115976892412,4678,92
61,-0.0116114877164,4679,92
62,-0.0116391936317,4680,92
63,-0.0116810342297,4681,92
64,-0.0117091238499,4682,92
65,-0.0117373745888,4683,92
66,-0.0117657948285,4684,92
67,-0.0117943855003,4685,92
68,-0.0118087464944,4686,92
69,-0.011837602593,4687,92
70,-0.0118666402996,4688,92
71,-0.0118812285364,4689,92
72,-0.0119105456397,4690,92
73,-0.0119548775256,4691,92
74,-0.0119846733287,4692,92
75,-0.0119996452704,4693,92
76,-0.0120448553935,4694,92
77,-0.0120752444491,4695,92
78,-0.0121058328077,4696,92
79,-0.0121212024242,4697,92
80,-0.0121676092967,4698,92
81,-0.0121987974271,4699,92
82,-0.0122301857919,4700,92
83,-0.0122617725283,4701,92
84,-0.012277639471,4702,92
85,-0.0123095205054,4703,92
86,-0.0123415952548,4704,92
87,-0.0123577052727,4705,92
88,-0.0123900659382,4706,92
89,-0.0124226128682,4707,92
90,-0.0124553423375,4708,92
91,-0.0125047676265,4709,92
92,-0.0125379329547,4710,92
93,-0.0125712621957,4711,92
94,-0.0126047506928,4712,92
95,-0.0126383928582,4713,92
96,-0.0126721812412,4714,92
97,-0.0126891275868,4715,92
98,-0.0127231199294,4716,92
99,-0.012757238932,4717,92
100,-0.012774342671,4718,92
101,-0.0128086339682,4719,92
102,-0.0128602618352,4720,92
103,-0.0128775173798,4721,92
104,-0.0129120899364,4722,92
105,-0.0129467351362,4723,92
106,-0.0129988137633,4724,92
107,-0.0130335893482,4725,92
108,-0.0130683956668,4726,92
109,-0.0131032196805,4727,92
110,-0.0131380492821,4728,92
111,-0.0131728695706,4729,92
112,-0.0132076665759,4730,92
113,-0.0132250515744,4731,92
114,-0.0132597852498,4732,92
115,-0.013294457458,4733,92
116,-0.0133290532976,4734,92
117,-0.0133635569364,4735,92
118,-0.0133807687089,4736,92
119,-0.0134151019156,4737,92
120,-0.013466344215,4738,92
121,-0.0135003076866,4739,92
122,-0.0135340923443,4740,92
123,-0.0135676823556,4741,92
124,-0.0136010572314,4742,92
125,-0.0136341964826,4743,92
126,-0.0136670833454,4744,92
127,-0.0136834261939,4745,92
128,-0.0137320226058,4746,92
129,-0.0137480692938,4747,92
130,-0.0137640349567,4748,92
131,-0.0138114262372,4749,92
132,-0.0138425724581,4750,92
133,-0.0138580035418,4751,92
134,-0.013903698884,4752,92
135,-0.0139187229797,4753,92
136,-0.013963136822,4754,92
137,-0.0139777129516,4755,92
138,-0.0140207186341,4756,92
139,-0.0140487626195,4757,92
140,-0.0140625881031,4758,92
141,-0.0140898358077,4759,92
142,-0.0141296554357,4760,92
143,-0.014142637141,4761,92
144,-0.0141681497917,4762,92
145,-0.0141930440441,4763,92
146,-0.0142172994092,4764,92
147,-0.0142291802913,4765,92
148,-0.01425243821,4766,92
149,-0.0142860272899,4767,92
150,-0.0142968669534,4768,92
151,-0.0143179986626,4769,92
152,-0.014348286204,4770,92
153,-0.0143675105646,4771,92
154,-0.0143859405071,4772,92
155,-0.0143948514014,4773,92
156,-0.0144203417003,4774,92
157,-0.0144362775609,4775,92
158,-0.0144513463601,4776,92
159,-0.0144585510716,4777,92
160,-0.0144655322656,4778,92
161,-0.0144851189107,4779,92
162,-0.0144970258698,4780,92
163,-0.0145026277751,4781,92
164,-0.0145131219178,4782,92
165,-0.0145270572975,4783,92
166,-0.0145312137902,4784,92
167,-0.0145421978086,4785,92
168,-0.0145482644439,4786,92
169,-0.0145509168506,4787,92
170,-0.0145573308691,4788,92
171,-0.0145603083074,4789,92
172,-0.0145622342825,4790,92
173,-0.0145631004125,4791,92
174,-0.0145631330088,4792,92
175,-0.0145623926073,4793,92
176,-0.0145605700091,4794,92
177,-0.014557659626,4795,92
178,-0.0145536558703,4796,92
179,-0.0145485512912,4797,92
180,-0.0145423412323,4798,92
181,-0.0145350228995,4799,92
182,-0.0145265916362,4800,92
183,-0.0145170455799,4801,92
184,-0.014506381005,4802,92
185,-0.0144945969805,4803,92
186,-0.0144882863387,4804,92
187,-0.0144676743075,4805,92
188,-0.0144525356591,4806,92
189,-0.0144445477054,4807,92
190,-0.0144277354702,4808,92
191,-0.0144189130515,4809,92
192,-0.0143907805905,4810,92
193,-0.0143706444651,4811,92
194,-0.0143601642922,4812,92
195,-0.0143270846456,4813,92
196,-0.0143155148253,4814,92
197,-0.0142791857943,4815,92
198,-0.0142665393651,4816,92
199,-0.0142270065844,4817,92
200,-0.0141993351281,4818,92
201,-0.0141706224531,4819,92
202,-0.0141408797354,4820,92
203,-0.0141101200134,4821,92
204,-0.0140943620354,4822,92
205,-0.0140620982274,4823,92
206,-0.0140288490802,4824,92
207,-0.0139946276322,4825,92
208,-0.0139771578833,4826,92
209,-0.0139233330265,4827,92
210,-0.0138862887397,4828,92
211,-0.0138483354822,4829,92
212,-0.0138094900176,4830,92
213,-0.0137897385284,4831,92
214,-0.0137291960418,4832,92
215,-0.0137085933238,4833,92
216,-0.0136667694896,4834,92
217,-0.0136241372675,4835,92
218,-0.0135587165132,4836,92
219,-0.0135365268216,4837,92
220,-0.013491589576,4838,92
221,-0.0134688476101,4839,92
222,-0.0133995562792,4840,92
223,-0.0133525040001,4841,92
224,-0.0133047904819,4842,92
225,-0.0132564371452,4843,92
226,-0.0132320281118,4844,92
227,-0.0131579060107,4845,92
228,-0.0131077729166,4846,92
229,-0.0130824996158,4847,92
230,-0.0130058908835,4848,92
231,-0.0129801016301,4849,92
232,-0.0129020120949,4850,92
233,-0.0128493830562,4851,92
234,-0.0127963265404,4852,92
235,-0.01276964508,4853,92
236,-0.0127159915864,4854,92
237,-0.0126619711518,4855,92
238,-0.0126076070592,4856,92
239,-0.0125803034753,4857,92
240,-0.0124979456887,4858,92
241,-0.0124426968396,4859,92
242,-0.0123872002587,4860,92
243,-0.0123314801604,4861,92
244,-0.012275560759,4862,92
245,-0.0122194644064,4863,92
246,-0.0121913570911,4864,92
247,-0.0121068349108,4865,92
248,-0.0120503474027,4866,92
249,-0.0120220705867,4867,92
250,-0.0119654648006,4868,92
251,-0.0119088068604,4869,92
252,-0.0118521200493,4870,92
253,-0.0117954239249,4871,92
254,-0.0117670800537,4872,92
255,-0.011710411869,4873,92
256,-0.0116254994646,4874,92
257,-0.0115689793602,4875,92
258,-0.0115125533193,4876,92
259,-0.0114562399685,4877,92
260,-0.0114000588655,4878,92
261,-0.0113440286368,4879,92
262,-0.0113160759211,4880,92
263,-0.0112603055313,4881,92
264,-0.0111770173535,4882,92
265,-0.0111493617296,4883,92
266,-0.0111217629164,4884,92
267,-0.0110393278301,4885,92
268,-0.0109846889973,4886,92
269,-0.010930323042,4887,92
270,-0.010876243934,4888,92
271,-0.010822464712,4889,92
272,-0.0107689984143,4890,92
273,-0.0107158571482,4891,92
274,-0.0106630548835,4892,92
275,-0.0106106000021,4893,92
276,-0.0105585046113,4894,92
277,-0.0105325952172,4895,92
278,-0.0104810567573,4896,92
279,-0.0104044703767,4897,92
280,-0.010379139334,4898,92
281,-0.0103287771344,4899,92
282,-0.0102788219228,4900,92
283,-0.0102292820811,4901,92
284,-0.0101801622659,4902,92
285,-0.0101314708591,4903,92
286,-0.0100832106546,4904,92
287,-0.0100353872404,4905,92
288,-0.0100116413087,4906,92
0,-0.0100222537294,4660,93
1,-0.0101249096915,4661,93
2,-0.0101937446743,4662,93
3,-0.0102628758177,4663,93
4,-0.0103322817013,4664,93
5,-0.0103670833632,4665,93
6,-0.0104718478397,4666,93
7,-0.0105068823323,4667,93
8,-0.0105771049857,4668,93
9,-0.0106827858835,4669,93
10,-0.0107534425333,4670,93
11,-0.0107888234779,4671,93
12,-0.0108242370188,4672,93
13,-0.0109306424856,4673,93
14,-0.0109661575407,4674,93
15,-0.011072807014,4675,93
16,-0.0111439665779,4676,93
17,-0.0111795570701,4677,93
18,-0.0112507436424,4678,93
19,-0.0113575002179,4679,93
20,-0.0114286234602,4680,93
21,-0.0114996833727,4681,93
22,-0.0115706585348,4682,93
23,-0.0116415265948,4683,93
24,-0.0117122661322,4684,93
25,-0.0117828547955,4685,93
26,-0.0118180848658,4686,93
27,-0.0118532693014,4687,93
28,-0.0119234891608,4688,93
29,-0.0120284035802,4689,93
30,-0.0120632536709,4690,93
31,-0.0121327545494,4691,93
32,-0.0122019704431,4692,93
33,-0.0122708790004,4693,93
34,-0.0123736178502,4694,93
35,-0.0124416621402,4695,93
36,-0.0124755408615,4696,93
37,-0.012576572597,4697,93
38,-0.0126433949918,4698,93
39,-0.0127097666264,4699,93
40,-0.0127756642178,4700,93
41,-0.0128084290773,4701,93
42,-0.0128735760227,4702,93
43,-0.0129381949082,4703,93
44,-0.0130022643134,4704,93
45,-0.0130657618865,4705,93
46,-0.0131286662072,4706,93
47,-0.0131909567863,4707,93
48,-0.0132526122034,4708,93
49,-0.0133136119694,4709,93
50,-0.0133438585326,4710,93
51,-0.013433560729,4711,93
52,-0.0134924687445,4712,93
53,-0.0135216480121,4713,93
54,-0.0136080542579,4714,93
55,-0.0136646907777,4715,93
56,-0.01369271148,4716,93
57,-0.0137481465936,4717,93
58,-0.0138027574867,4718,93
59,-0.0138565246016,4719,93
60,-0.0139094293118,4720,93
61,-0.0139614548534,4721,93
62,-0.0140125816688,4722,93
63,-0.0140627948567,4723,93
64,-0.0141120757908,4724,93
65,-0.0141604086384,4725,93
66,-0.0142077766359,4726,93
67,-0.014254164882,4727,93
68,-0.014299556613,4728,93
69,-0.0143439369276,4729,93
70,-0.0143872909248,4730,93
71,-0.0144085790962,4731,93
72,-0.0144503675401,4732,93
73,-0.014491096139,4733,93
74,-0.0145307509229,4734,93
75,-0.0145693188533,4735,93
76,-0.0146067896858,4736,93
77,-0.0146431485191,4737,93
78,-0.0146609088406,4738,93
79,-0.0147124929354,4739,93
80,-0.0147454552352,4740,93
81,-0.0147772645578,4741,93
82,-0.0148079115897,4742,93
83,-0.0148227969185,4743,93
84,-0.0148656861857,4744,93
85,-0.0148793905973,4745,93
86,-0.0149059062824,4746,93
87,-0.0149312233552,4747,93
88,-0.0149553380907,4748,93
89,-0.0149782430381,4749,93
90,-0.014989240095,4750,93
91,-0.0150204030797,4751,93
92,-0.015039649792,4752,93
93,-0.0150576690212,4753,93
94,-0.0150744570419,4754,93
95,-0.0150823900476,4755,93
96,-0.015097329393,4756,93
97,-0.0151174208149,4757,93
98,-0.0151292691007,4758,93
99,-0.015134729445,4759,93
100,-0.0151492524892,4760,93
101,-0.0151573885232,4761,93
102,-0.0151609936729,4762,93
103,-0.0151672773063,4763,93
104,-0.0151723297313,4764,93
105,-0.0151743944734,4765,93
106,-0.0151787474751,4766,93
107,-0.0151795875281,4767,93
108,-0.0151803521439,4768,93
109,-0.0151792187244,4769,93
110,-0.0151769518852,4770,93
111,-0.0151753677055,4771,93
112,-0.0151713006198,4772,93
113,-0.0151660414413,4773,93
114,-0.0151559310034,4774,93
115,-0.0151519728824,4775,93
116,-0.0151383476332,4776,93
117,-0.015133225359,4777,93
118,-0.0151221202686,4778,93
119,-0.0151161374524,4779,93
120,-0.0150964884087,4780,93
121,-0.015081983991,4781,93
122,-0.0150663666427,4782,93
123,-0.0150496494025,4783,93
124,-0.0150318415835,4784,93
125,-0.0150129562244,4785,93
126,-0.0149930054322,4786,93
127,-0.0149720031768,4787,93
128,-0.014961110428,4788,93
129,-0.0149268908426,4789,93
130,-0.0149028087035,4790,93
131,-0.0148777263239,4791,93
132,-0.0148648153991,4792,93
133,-0.0148382624611,4793,93
134,-0.0148107456043,4794,93
135,-0.0147822797298,4795,93
136,-0.0147528825328,4796,93
137,-0.0147225661203,4797,93
138,-0.0147070689127,4798,93
139,-0.0146754058078,4799,93
140,-0.0146428635344,4800,93
141,-0.014609457925,4801,93
142,-0.014575204812,4802,93
143,-0.0145222740248,4803,93
144,-0.0145042249933,4804,93
145,-0.0144675308838,4805,93
146,-0.0144110294059,4806,93
147,-0.0143724130467,4807,93
148,-0.0143528273329,4808,93
149,-0.0143131101504,4809,93
150,-0.0142726777121,4810,93
151,-0.0142315477133,4811,93
152,-0.0141897369176,4812,93
153,-0.0141472630203,4813,93
154,-0.0141257820651,4814,93
155,-0.0140603911132,4815,93
156,-0.0140382852405,4816,93
157,-0.0139936208725,4817,93
158,-0.0139255281538,4818,93
159,-0.0138794258237,4819,93
160,-0.013856167905,4820,93
161,-0.0138092497364,4821,93
162,-0.01373789832,4822,93
163,-0.013713862747,4823,93
164,-0.0136654237285,4824,93
165,-0.0136165106669,4825,93
166,-0.0135671384633,4826,93
167,-0.0135173210874,4827,93
168,-0.0134670753032,4828,93
169,-0.0134164160118,4829,93
170,-0.0133653581142,4830,93
171,-0.0133139146492,4831,93
172,-0.0132880536839,4832,93
173,-0.0132360598072,4833,93
174,-0.0131574207917,4834,93
175,-0.0131045812741,4835,93
176,-0.0130514260381,4836,93
177,-0.0130247343332,4837,93
178,-0.0129711311311,4838,93
179,-0.0129172448069,4839,93
180,-0.0128630883992,4840,93
181,-0.0128086730838,4841,93
182,-0.0127813713625,4842,93
183,-0.0127265900373,4843,93
184,-0.0126439919695,4844,93
185,-0.0125886583701,4845,93
186,-0.0125331226736,4846,93
187,-0.0125052826479,4847,93
188,-0.0124214841053,4848,93
189,-0.0123654026538,4849,93
190,-0.0123091572896,4850,93
191,-0.0122527591884,4851,93
192,-0.0121962158009,4852,93
193,-0.0121678924188,4853,93
194,-0.0121111469343,4854,93
195,-0.0120827266946,4855,93
196,-0.0119972918183,4856,93
197,-0.0119401970878,4857,93
198,-0.0119116101414,4858,93
199,-0.0118257086724,4859,93
200,-0.0117683270946,4860,93
201,-0.0117108644918,4861,93
202,-0.0116533255205,4862,93
203,-0.0115957148373,4863,93
204,-0.0115380389616,4864,93
205,-0.0114803034812,4865,93
206,-0.0114225130528,4866,93
207,-0.011364669539,4867,93
208,-0.0113357305527,4868,93
209,-0.0112778199837,4869,93
210,-0.0112488493323,4870,93
211,-0.0111618796363,4871,93
212,-0.0111038582399,4872,93
213,-0.0110458061099,4873,93
214,-0.0110167693347,4874,93
215,-0.0109586780891,4875,93
216,-0.0108714997768,4876,93
217,-0.0108133563772,4877,93
218,-0.0107551952824,4878,93
219,-0.0106970192865,4879,93
220,-0.0106679257005,4880,93
221,-0.0105806291103,4881,93
222,-0.0105515252799,4882,93
223,-0.0104933110997,4883,93
224,-0.0104642016813,4884,93
225,-0.0103768613189,4885,93
226,-0.0103186285123,4886,93
227,-0.0102603910491,4887,93
228,-0.0102021507919,4888,93
229,-0.0101439077407,4889,93
230,-0.0101147852838,4890,93
231,-0.0100274169818,4891,93
0,-0.0100006824359,4637,94
1,-0.010039431043,4638,94
2,-0.0100588416681,4639,94
3,-0.0101172178984,4640,94
4,-0.0101367235184,4641,94
5,-0.0101758055389,4642,94
6,-0.0102149769664,4643,94
7,-0.0102542378008,4644,94
8,-0.0102935852483,4645,94
9,-0.0103330174461,4646,94
10,-0.0103725334629,4647,94
11,-0.0104121286422,4648,94
12,-0.0104518020526,4649,94
13,-0.0104716680944,4650,94
14,-0.0105114569888,4651,94
15,-0.0105712758377,4652,94
16,-0.0105912508443,4653,94
17,-0.0106312530115,4654,94
18,-0.0106913791969,4655,94
19,-0.0107114529237,4656,94
20,-0.0107516460121,4657,94
21,-0.0107918996364,4658,94
22,-0.0108322100714,4659,94
23,-0.0108725745231,4660,94
24,-0.0109129911289,4661,94
25,-0.0109534570947,4662,94
26,-0.0109939686954,4663,94
27,-0.0110345259309,4664,94
28,-0.0110751232132,4665,94
29,-0.0110954372212,4666,94
30,-0.0111564341933,4667,94
31,-0.011197139509,4668,94
32,-0.0112378755584,4669,94
33,-0.0112786386162,4670,94
34,-0.011299029924,4671,94
35,-0.011339828372,4672,94
36,-0.0113602355123,4673,94
37,-0.0114214802161,4674,94
38,-0.0114623261616,4675,94
39,-0.0114827528596,4676,94
40,-0.0115440441296,4677,94
41,-0.0115849087015,4678,94
42,-0.0116257723421,4679,94
43,-0.0116666322574,4680,94
44,-0.0117074837908,4681,94
45,-0.0117483222857,4682,94
46,-0.0117891449481,4683,94
47,-0.0118095492944,4684,94
48,-0.0118707260117,4685,94
49,-0.0118911042809,4686,94
50,-0.0119318366051,4687,94
51,-0.0119521897286,4688,94
52,-0.0119928671047,4689,94
53,-0.0120538026094,4690,94
54,-0.0120943654329,4691,94
55,-0.0121348714456,4692,94
56,-0.0121551025659,4693,94
57,-0.0122156990692,4694,94
58,-0.0122560085729,4695,94
59,-0.012276135385,4696,94
60,-0.0123363919556,4697,94
61,-0.0123764537275,4698,94
62,-0.0123964492232,4699,94
63,-0.0124562857673,4700,94
64,-0.0124761788175,4701,94
65,-0.0125158810988,4702,94
66,-0.0125554651022,4703,94
67,-0.0125949243084,4704,94
68,-0.012614605017,4705,94
69,-0.012673439458,4706,94
70,-0.0126929786056,4707,94
71,-0.0127319442108,4708,94
72,-0.0127707514912,4709,94
73,-0.0128093929961,4710,94
74,-0.012867026031,4711,94
75,-0.0129052167758,4712,94
76,-0.0129242390394,4713,94
77,-0.0129810031503,4714,94
78,-0.0130185810849,4715,94
79,-0.0130372876301,4716,94
80,-0.0130745293573,4717,94
81,-0.0131115335971,4718,94
82,-0.0131299439818,4719,94
83,-0.0131665766239,4720,94
84,-0.0132210319862,4721,94
85,-0.0132569950074,4722,94
86,-0.0132926702499,4723,94
87,-0.0133280493319,4724,94
88,-0.0133631210774,4725,94
89,-0.0133978761733,4726,94
90,-0.0134151307866,4727,94
91,-0.0134663870558,4728,94
92,-0.0135001214221,4729,94
93,-0.0135334953666,4730,94
94,-0.013566493988,4731,94
95,-0.0135828498751,4732,94
96,-0.0135991079733,4733,94
97,-0.0136472815648,4734,94
98,-0.0136788822711,4735,94
99,-0.0137100564316,4736,94
100,-0.0137407919392,4737,94
101,-0.0137559911236,4738,94
102,-0.0138009004295,4739,94
103,-0.0138302501291,4740,94
104,-0.013859112747,4741,94
105,-0.0138874771073,4742,94
106,-0.0139153301716,4743,94
107,-0.0139426607639,4744,94
108,-0.013969456777,4745,94
109,-0.0139826498926,4746,94
110,-0.0140086198226,4747,94
111,-0.014021393843,4748,94
112,-0.0140465125442,4749,94
113,-0.0140710473061,4750,94
114,-0.0141067309305,4751,94
115,-0.0141297569498,4752,94
116,-0.0141521589831,4753,94
117,-0.0141739249229,4754,94
118,-0.0141845662147,4755,94
119,-0.0142155047506,4756,94
120,-0.0142254848033,4757,94
121,-0.0142544051632,4758,94
122,-0.0142728239298,4759,94
123,-0.0142905414104,4760,94
124,-0.0143075464293,4761,94
125,-0.0143157783896,4762,94
126,-0.0143238287419,4763,94
127,-0.0143468761817,4764,94
128,-0.0143613098189,4765,94
129,-0.0143682435155,4766,94
130,-0.0143879000098,4767,94
131,-0.0144000388682,4768,94
132,-0.0144113954157,4769,94
133,-0.0144219612703,4770,94
134,-0.0144269447774,4771,94
135,-0.0144363092259,4772,94
136,-0.0144488364458,4773,94
137,-0.0144561640918,4774,94
138,-0.0144595177844,4775,94
139,-0.0144683308899,4776,94
140,-0.0144708510488,4777,94
141,-0.0144731597975,4778,94
142,-0.0144788185135,4779,94
143,-0.0144815267995,4780,94
144,-0.0144833792001,4781,94
145,-0.0144843701273,4782,94
146,-0.0144844958559,4783,94
147,-0.0144842341542,4784,94
148,-0.0144821424037,4785,94
149,-0.0144810089841,4786,94
150,-0.0144780864939,4787,94
151,-0.0144742876291,4788,94
152,-0.014466942288,4789,94
153,-0.0144609464332,4790,94
154,-0.0144540695474,4791,94
155,-0.0144503023475,4792,94
156,-0.0144421067089,4793,94
157,-0.0144330319017,4794,94
158,-0.0144281657413,4795,94
159,-0.014417774044,4796,94
160,-0.0144005445763,4797,94
161,-0.0143943652511,4798,94
162,-0.0143813518807,4799,94
163,-0.0143602034077,4800,94
164,-0.0143527211621,4801,94
165,-0.0143289845437,4802,94
166,-0.0143120894209,4803,94
167,-0.0142943421379,4804,94
168,-0.0142851509154,4805,94
169,-0.0142563143745,4806,94
170,-0.0142360460013,4807,94
171,-0.0142256002873,4808,94
172,-0.0142040895298,4809,94
173,-0.0141817601398,4810,94
174,-0.0141702899709,4811,94
175,-0.0141346724704,4812,94
176,-0.0141223995015,4813,94
177,-0.0140843959525,4814,94
178,-0.0140580832958,4815,94
179,-0.0140446359292,4816,94
180,-0.0140171665698,4817,94
