,amplitude,tstep,vfp
0,-0.0100504849106,4219,92
1,-0.0100810462609,4220,92
2,-0.0101413410157,4221,92
3,-0.0102004986256,4222,92
4,-0.0102870240808,4223,92
5,-0.0103152580559,4224,92
6,-0.0103980815038,4225,92
7,-0.0104250498116,4226,92
8,-0.0104780048132,4227,92
9,-0.0105296280235,4228,92
10,-0.0105798933655,4229,92
11,-0.0106526892632,4230,92
12,-0.010699454695,4231,92
13,-0.0107223000377,4232,92
14,-0.0107669048011,4233,92
15,-0.0108100492507,4234,92
16,-0.0108517184854,4235,92
17,-0.0108918994665,4236,92
18,-0.0109114283696,4237,92
19,-0.0109493583441,4238,92
20,-0.0110034188256,4239,92
21,-0.0110375629738,4240,92
22,-0.0110701872036,4241,92
23,-0.0111012915149,4242,92
24,-0.0111162755638,4243,92
25,-0.0111589552835,4244,92
26,-0.0111724277958,4245,92
27,-0.0112105943263,4246,92
28,-0.0112341791391,4247,92
29,-0.0112454174086,4248,92
30,-0.0112667940557,4249,92
31,-0.0112867197022,4250,92
32,-0.0112961437553,4251,92
33,-0.0113222878426,4252,92
34,-0.0113379722461,4253,92
35,-0.0113522876054,4254,92
36,-0.0113589400426,4255,92
37,-0.0113769154996,4256,92
38,-0.0113872848451,4257,92
39,-0.0113963978365,4258,92
40,-0.0114042880014,4259,92
41,-0.011410987936,4260,92
42,-0.0114139029756,4261,92
43,-0.0114188864827,4262,92
44,-0.0114227738231,4263,92
45,-0.0114256041124,4264,92
46,-0.0114274183288,4265,92
47,-0.0114282593131,4266,92
48,-0.0114281699061,4267,92
49,-0.0114271938801,4268,92
50,-0.0114253787324,4269,92
51,-0.0114241717383,4270,92
52,-0.0114194201306,4271,92
53,-0.0114153716713,4272,92
54,-0.0114106759429,4273,92
55,-0.011405384168,4274,92
56,-0.0113995447755,4275,92
57,-0.0113932108507,4276,92
58,-0.0113864345476,4277,92
59,-0.0113828973845,4278,92
60,-0.0113792680204,4279,92
61,-0.0113678975031,4280,92
62,-0.0113599840552,4281,92
63,-0.011351861991,4282,92
64,-0.0113477399573,4283,92
65,-0.0113352071494,4284,92
66,-0.0113267786801,4285,92
67,-0.0113183530048,4286,92
68,-0.0113099804148,4287,92
69,-0.0113058304414,4288,92
70,-0.011293599382,4289,92
71,-0.0112896161154,4290,92
72,-0.0112780351192,4291,92
73,-0.0112743182108,4292,92
74,-0.0112671339884,4293,92
75,-0.0112603222951,4294,92
76,-0.011253926903,4295,92
77,-0.0112479934469,4296,92
78,-0.0112425656989,4297,92
79,-0.0112376846373,4298,92
80,-0.0112354615703,4299,92
81,-0.0112297246233,4300,92
82,-0.0112267220393,4301,92
83,-0.0112244207412,4302,92
84,-0.0112235434353,4303,92
85,-0.0112220551819,4304,92
86,-0.0112220551819,4305,92
87,-0.0112223634496,4306,92
88,-0.0112245678902,4307,92
89,-0.0112257385626,4308,92
90,-0.0112271318212,4309,92
91,-0.0112326815724,4310,92
92,-0.0112349968404,4311,92
93,-0.0112433703616,4312,92
94,-0.0112501624972,4313,92
95,-0.0112579418346,4314,92
96,-0.0112667204812,4315,92
97,-0.0112765086815,4316,92
98,-0.0112817827612,4317,92
99,-0.0112991407514,4318,92
100,-0.0113054402173,4319,92
101,-0.0113188102841,4320,92
102,-0.0113332094625,4321,92
103,-0.0113486377522,4322,92
104,-0.0113650914282,4323,92
105,-0.011382563971,4324,92
106,-0.0113916806877,4325,92
107,-0.011410667561,4326,92
108,-0.0114410137758,4327,92
109,-0.0114624695852,4328,92
110,-0.0114848865196,4329,92
111,-0.0115082487464,4330,92
112,-0.0115202786401,4331,92
113,-0.0115577280521,4332,92
114,-0.0115706557408,4333,92
115,-0.0116107305512,4334,92
116,-0.0116384904832,4335,92
117,-0.0116670532152,4336,92
118,-0.0116816265509,4337,92
119,-0.0117113376036,4338,92
120,-0.011741775088,4339,92
121,-0.0117729064077,4340,92
122,-0.0118046980351,4341,92
123,-0.0118371136487,4342,92
124,-0.0118701159954,4343,92
125,-0.0119036668912,4344,92
126,-0.0119206355885,4345,92
127,-0.0119722597301,4346,92
128,-0.0119896894321,4347,92
129,-0.0120248515159,4348,92
130,-0.0120603824034,4349,92
131,-0.0121142752469,4350,92
132,-0.0121323773637,4351,92
133,-0.0121687548235,4352,92
134,-0.0122236739844,4353,92
135,-0.0122420517728,4354,92
136,-0.0122788818553,4355,92
137,-0.0123157752678,4356,92
138,-0.0123342303559,4357,92
139,-0.0123711321503,4358,92
140,-0.0124263791367,4359,92
141,-0.0124630741775,4360,92
142,-0.0124996090308,4361,92
143,-0.0125359399244,4362,92
144,-0.0125720230862,4363,92
145,-0.0126078156754,4364,92
146,-0.0126255899668,4365,92
147,-0.0126783587039,4366,92
148,-0.0126957464963,4367,92
149,-0.0127472365275,4368,92
150,-0.0127641577274,4369,92
151,-0.0127809504047,4370,92
152,-0.0128305051476,4371,92
153,-0.0128628099337,4372,92
154,-0.0128944851458,4373,92
155,-0.012910076417,4374,92
156,-0.0129558108747,4375,92
157,-0.0129706952721,4376,92
158,-0.0129998987541,4377,92
159,-0.0130422320217,4378,92
160,-0.0130694285035,4379,92
161,-0.0130827082321,4380,92
162,-0.0131086139008,4381,92
163,-0.0131457876414,4382,92
164,-0.0131577178836,4383,92
165,-0.0131808677688,4384,92
166,-0.0132030518726,4385,92
167,-0.0132137741894,4386,92
168,-0.0132444370538,4387,92
169,-0.0132541479543,4388,92
170,-0.0132817197591,4389,92
171,-0.0132987815887,4390,92
172,-0.0133069101721,4391,92
173,-0.0133296698332,4392,92
174,-0.0133434729651,4393,92
175,-0.0133561659604,4394,92
176,-0.0133677423,4395,92
177,-0.013373109512,4396,92
178,-0.0133829955012,4397,92
179,-0.0133956940845,4398,92
180,-0.0133993569762,4399,92
181,-0.0134058231488,4400,92
182,-0.0134086273611,4401,92
183,-0.0134133771062,4402,92
184,-0.0134183503687,4403,92
185,-0.0134202344343,4404,92
186,-0.0134209748358,4405,92
187,-0.0134209180251,4406,92
188,-0.0134199503809,4407,92
189,-0.0134163759649,4408,92
190,-0.013412585482,4409,92
191,-0.013407677412,4410,92
192,-0.0134016582742,4411,92
193,-0.0133982347324,4412,92
194,-0.0133863249794,4413,92
195,-0.0133818117902,4414,92
196,-0.0133719798177,4415,92
197,-0.0133610805497,4416,92
198,-0.0133552346379,4417,92
199,-0.0133361294866,4418,92
200,-0.0133221019059,4419,92
201,-0.0133070554584,4420,92
202,-0.0132910050452,4421,92
203,-0.0132826073095,4422,92
204,-0.0132559426129,4423,92
205,-0.0132369594648,4424,92
206,-0.0132271116599,4425,92
207,-0.0131961600855,4426,92
208,-0.0131743727252,4427,92
209,-0.0131516801193,4428,92
210,-0.0131399985403,4429,92
211,-0.0131159760058,4430,92
212,-0.0130910854787,4431,92
213,-0.0130783189088,4432,92
214,-0.0130521524698,4433,92
215,-0.0130113493651,4434,92
216,-0.0129973404109,4435,92
217,-0.0129541177303,4436,92
218,-0.0129243219271,4437,92
219,-0.0129091357812,4438,92
220,-0.01287819352,4439,92
221,-0.012830382213,4440,92
222,-0.0127975959331,4441,92
223,-0.0127640943974,4442,92
224,-0.0127298897132,4443,92
225,-0.0127125279978,4444,92
226,-0.012694994919,4445,92
227,-0.012641383335,4446,92
228,-0.0126048130915,4447,92
229,-0.0125675909221,4448,92
230,-0.0125487390906,4449,92
231,-0.0124912317842,4450,92
232,-0.0124717503786,4451,92
233,-0.0124323256314,4452,92
234,-0.0123720504344,4453,92
235,-0.0123311197385,4454,92
236,-0.0122896013781,4455,92
237,-0.0122686233371,4456,92
238,-0.0122262360528,4457,92
239,-0.0121615855023,4458,92
240,-0.0121177816764,4459,92
241,-0.0120956711471,4460,92
242,-0.0120734227821,4461,92
243,-0.0120058525354,4462,92
244,-0.0119601255283,4463,92
245,-0.0119370594621,4464,92
246,-0.0118670566007,4465,92
247,-0.0118197221309,4466,92
248,-0.0117718586698,4467,92
249,-0.0117477290332,4468,92
250,-0.0116745540872,4469,92
251,-0.0116251185536,4470,92
252,-0.0115751624107,4471,92
253,-0.0115499906242,4472,92
254,-0.0114736976102,4473,92
255,-0.0114221917465,4474,92
256,-0.0113962450996,4475,92
257,-0.0113439662382,4476,92
258,-0.0112911751494,4477,92
259,-0.0112378699705,4478,92
260,-0.0111840507016,4479,92
261,-0.0111297182739,4480,92
262,-0.0110748726875,4481,92
263,-0.011019513011,4482,92
264,-0.0109636401758,4483,92
265,-0.0109072532505,4484,92
266,-0.0108788665384,4485,92
267,-0.0108217075467,4486,92
268,-0.0107350032777,4487,92
269,-0.0107058435678,4488,92
270,-0.010617589578,4489,92
271,-0.0105879139155,4490,92
272,-0.010528174229,4491,92
273,-0.0104679176584,4492,92
274,-0.0104071442038,4493,92
275,-0.0103458529338,4494,92
276,-0.0102840438485,4495,92
277,-0.0102217169479,4496,92
278,-0.0101588731632,4497,92
279,-0.0101272575557,4498,92
280,-0.0100316368043,4499,92
281,0.0100241722539,3394,92
282,0.0100604230538,3395,92
283,0.0100956493989,3396,92
284,0.0101298457012,3397,92
285,0.0101630082354,3398,92
286,0.0101792002097,3399,92
287,0.0102262180299,3400,92
288,0.0102413697168,3401,92
289,0.0102708898485,3402,92
290,0.0102993622422,3403,92
291,0.0103267859668,3404,92
292,0.0103531600907,3405,92
293,0.010365953669,3406,92
294,0.0103907510638,3407,92
295,0.0104144960642,3408,92
296,0.0104481438175,3409,92
297,0.0104588344693,3410,92
298,0.0104794278741,3411,92
299,0.010508351028,3412,92
300,0.0105263255537,3413,92
301,0.0105432569981,3414,92
302,0.0105591472238,3415,92
303,0.0105667021126,3416,92
304,0.0105810370296,3417,92
305,0.01059433911,3418,92
306,0.0106066139415,3419,92
307,0.0106178643182,3420,92
308,0.0106280967593,3421,92
309,0.0106328334659,3422,92
310,0.0106455292553,3423,92
311,0.0106527423486,3424,92
312,0.0106589617208,3425,92
313,0.0106617007405,3426,92
314,0.0106684481725,3427,92
315,0.0106717301533,3428,92
316,0.0106730097905,3429,92
317,0.0106748510152,3430,92
318,0.0106757441536,3431,92
319,0.0106756985188,3432,92
320,0.010675326921,3433,92
321,0.0106728291139,3434,92
322,0.0106715410948,3435,92
323,0.0106682889163,3436,92
324,0.01066174265,3437,92
325,0.0106591209769,3438,92
326,0.0106532303616,3439,92
327,0.0106427967548,3440,92
328,0.0106388991699,3441,92
329,0.0106304846704,3442,92
330,0.0106163416058,3443,92
331,0.0106059182435,3444,92
332,0.0105947181582,3445,92
333,0.0105888303369,3446,92
334,0.0105764921755,3447,92
335,0.0105700446293,3448,92
336,0.0105496151373,3449,92
337,0.0105351097882,3450,92
338,0.0105199152604,3451,92
339,0.0105040473863,3452,92
340,0.0104958675802,3453,92
341,0.0104703679681,3454,92
342,0.0104525918141,3455,92
343,0.0104342168197,3456,92
344,0.0104152616113,3457,92
345,0.0103957457468,3458,92
346,0.0103756878525,3459,92
347,0.0103551093489,3460,92
348,0.0103446310386,3461,92
349,0.0103233084083,3462,92
350,0.0103015135974,3463,92
351,0.0102904466912,3464,92
352,0.0102565977722,3465,92
353,0.0102335177362,3466,92
354,0.0102100521326,3467,92
355,0.0101981814951,3468,92
356,0.0101620508358,3469,92
357,0.0101498430595,3470,92
358,0.0101127689704,3471,92
359,0.0100877052173,3472,92
360,0.0100750774145,3473,92
361,0.010049642995,3474,92
362,0.0100110881031,3475,92
363,0.0100195966661,3610,92
364,0.010039546527,3611,92
365,0.0100493943319,3612,92
366,0.0100688273087,3613,92
367,0.0100878970698,3614,92
368,0.0101065849885,3615,92
369,0.0101248780265,3616,92
370,0.01013387274,3617,92
371,0.0101515473798,3618,92
372,0.0101772444323,3619,92
373,0.0101938135922,3620,92
374,0.0102099189535,3621,92
375,0.0102255465463,3622,92
376,0.0102406833321,3623,92
377,0.0102480640635,3624,92
378,0.0102694407105,3625,92
379,0.0102830380201,3626,92
380,0.0102896364406,3627,92
381,0.0102960998192,3628,92
382,0.0103146685287,3629,92
383,0.0103263501078,3630,92
384,0.0103374626487,3631,92
385,0.010347998701,3632,92
386,0.0103530474007,3633,92
387,0.010367307812,3634,92
388,0.0103760669008,3635,92
389,0.0103842187673,3636,92
390,0.0103917568922,3637,92
391,0.0103952949867,3638,92
392,0.0104049732909,3639,92
393,0.0104106403887,3640,92
394,0.0104156741872,3641,92
395,0.0104179522023,3642,92
396,0.0104220295325,3643,92
397,0.0104238279164,3644,92
398,0.0104282554239,3645,92
399,0.0104303974658,3646,92
400,0.0104318894446,3647,92
401,0.0104327304289,3648,92
402,0.0104329194874,3649,92
403,0.0104327686131,3650,92
404,0.0104313371703,3651,92
405,0.0104305334389,3652,92
406,0.0104271415621,3653,92
407,0.010424066335,3654,92
408,0.0104222837836,3655,92
409,0.0104159638286,3656,92
410,0.010413534008,3657,92
411,0.0104081891477,3658,92
412,0.0104021998122,3659,92
413,0.0103955697268,3660,92
414,0.0103883026168,3661,92
415,0.0103804012761,3662,92
416,0.0103762149811,3663,92
417,0.0103673711419,3664,92
418,0.010352938436,3665,92
419,0.0103425458074,3666,92
420,0.0103315403685,3667,92
421,0.0103199286386,3668,92
422,0.010307717137,3669,92
423,0.0102949105203,3670,92
424,0.0102882869542,3671,92
425,0.0102746021003,3672,92
426,0.0102603370324,3673,92
427,0.0102455019951,3674,92
428,0.010230101645,3675,92
429,0.0102141434327,3676,92
430,0.01019763574,3677,92
431,0.0101805860177,3678,92
432,0.0101718595251,3679,92
433,0.010144890286,3680,92
434,0.0101262601092,3681,92
435,0.010107120499,3682,92
436,0.0100973621011,3683,92
437,0.0100673474371,3684,92
438,0.0100467307493,3685,92
439,0.010025639087,3686,92
440,0.0100040826946,3687,92
0,0.0100235426798,3641,93
1,0.010096475482,3642,93
2,0.0101208742708,3643,93
3,0.0101453131065,3644,93
4,0.0101943006739,3645,93
5,0.0102680213749,3646,93
6,0.0103172985837,3647,93
7,0.0103666568175,3648,93
8,0.0104160755873,3649,93
9,0.0104655325413,3650,93
10,0.0105150062591,3651,93
11,0.0105397421867,3652,93
12,0.0106139145792,3653,93
13,0.0106633044779,3654,93
14,0.0107126189396,3655,93
15,0.0107618365437,3656,93
16,0.0107864011079,3657,93
17,0.0108354268596,3658,93
18,0.0108842952177,3659,93
19,0.0109329810366,3660,93
20,0.0109814582393,3661,93
21,0.0110056102276,3662,93
22,0.011077686213,3663,93
23,0.0111015727744,3664,93
24,0.0111727714539,3665,93
25,0.0111963395029,3666,93
26,0.0112665034831,3667,93
27,0.0113127948716,3668,93
28,0.0113586653024,3669,93
29,0.011404087767,3670,93
30,0.0114490352571,3671,93
31,0.0114934779704,3672,93
32,0.0115155018866,3673,93
33,0.0115591352805,3674,93
34,0.0116021940485,3675,93
35,0.0116234989837,3676,93
36,0.0116864712909,3677,93
37,0.0117276310921,3678,93
38,0.0117681017146,3679,93
39,0.0117880683392,3680,93
40,0.0118468496948,3681,93
41,0.0118850711733,3682,93
42,0.0119224851951,3683,93
43,0.0119590600953,3684,93
44,0.0119947688654,3685,93
45,0.0120295817032,3686,93
46,0.0120466426015,3687,93
47,0.0120800556615,3688,93
48,0.0120963994414,3689,93
49,0.0121439415962,3690,93
50,0.0121743576601,3691,93
51,0.012203716673,3692,93
52,0.0122319897637,3693,93
53,0.0122591480613,3694,93
54,0.0122851645574,3695,93
55,0.0123100085184,3696,93
56,0.0123336529359,3697,93
57,0.0123450160027,3698,93
58,0.0123668089509,3699,93
59,0.0123971095309,3700,93
60,0.012415680103,3701,93
61,0.0124329142272,3702,93
62,0.0124410213903,3703,93
63,0.0124562010169,3704,93
64,0.0124699799344,3705,93
65,0.0124823320657,3706,93
66,0.0124879647046,3707,93
67,0.0125026563182,3708,93
68,0.0125105800107,3709,93
69,0.0125139728189,3710,93
70,0.0125218341127,3711,93
71,0.0125251188874,3712,93
72,0.012526165694,3713,93
73,0.0125268921256,3714,93
74,0.0125253386796,3715,93
75,0.012523942627,3716,93
76,0.0125172520056,3717,93
77,0.0125141786411,3718,93
78,0.0125106805936,3719,93
79,0.0125023983419,3720,93
80,0.0124867316335,3721,93
81,0.0124806361273,3722,93
82,0.0124671226367,3723,93
83,0.0124435191974,3724,93
84,0.0124255409464,3725,93
85,0.0124057522044,3726,93
86,0.012384140864,3727,93
87,0.0123606957495,3728,93
88,0.012335405685,3729,93
89,0.0123082604259,3730,93
90,0.0122792525217,3731,93
91,0.0122640477493,3732,93
92,0.0122322291136,3733,93
93,0.0122156152502,3734,93
94,0.0121629433706,3735,93
95,0.0121444407851,3736,93
96,0.0121060134843,3737,93
97,0.0120448153466,3738,93
98,0.0120234657079,3739,93
99,0.0119793405756,3740,93
100,0.0119095891714,3741,93
101,0.0118607124314,3742,93
102,0.0118099376559,3743,93
103,0.0117572695017,3744,93
104,0.0117302266881,3745,93
105,0.0116462688893,3746,93
106,0.0115879494697,3747,93
107,0.011527759023,3748,93
108,0.0114969648421,3749,93
109,0.0114339860156,3750,93
110,0.0114018032327,3751,93
111,0.0113024991006,3752,93
112,0.0112684834749,3753,93
113,0.0111990924925,3754,93
114,0.0111278984696,3755,93
115,0.0110177611932,3756,93
116,0.0109801637009,3757,93
117,0.0109036564827,3758,93
118,0.0107856467366,3759,93
119,0.0107454527169,3760,93
120,0.0106223383918,3761,93
121,0.0105381766334,3762,93
122,0.0104523729533,3763,93
123,0.0104088624939,3764,93
124,0.0103649515659,3765,93
125,0.0102308411151,3766,93
126,0.0101394858211,3767,93
127,0.0100466031581,3768,93
128,-0.0101029230282,4313,93
129,-0.010213390924,4314,93
130,-0.0102690644562,4315,93
131,-0.0104377353564,4316,93
132,-0.0105514684692,4317,93
133,-0.0106661450118,4318,93
134,-0.010781692341,4319,93
135,-0.0108980340883,4320,93
136,-0.011015095748,4321,93
137,-0.011132799089,4322,93
138,-0.0111918663606,4323,93
139,-0.0113103855401,4324,93
140,-0.0114293480292,4325,93
141,-0.0115486774594,4326,93
142,-0.0116682918742,4327,93
143,-0.0117281805724,4328,93
144,-0.0119080496952,4329,93
145,-0.0119680399075,4330,93
146,-0.0121479695663,4331,93
147,-0.0122677860782,4332,93
148,-0.0123873958364,4333,93
149,-0.012506717816,4334,93
150,-0.0126256700605,4335,93
151,-0.0127441668883,4336,93
152,-0.0128621291369,4337,93
153,-0.0129794757813,4338,93
154,-0.0130378911272,4339,93
155,-0.0131541593,4340,93
156,-0.0132119907066,4341,93
157,-0.0133269988,4342,93
158,-0.0134410662577,4343,93
159,-0.0135541139171,4344,93
160,-0.0137216011062,4345,93
161,-0.013831757009,4346,93
162,-0.0139406202361,4347,93
163,-0.014048114419,4348,93
164,-0.0141541669145,4349,93
165,-0.0142066292465,4350,93
166,-0.0143616488203,4351,93
167,-0.0144629348069,4352,93
168,-0.0145129328594,4353,93
169,-0.0146115962416,4354,93
170,-0.0147084249184,4355,93
171,-0.0148033518344,4356,93
172,-0.0148500828072,4357,93
173,-0.0149420369416,4358,93
174,-0.0150760812685,4359,93
175,-0.0151627641171,4360,93
176,-0.015247233212,4361,93
177,-0.0153294317424,4362,93
178,-0.0154093019664,4363,93
179,-0.015448346734,4364,93
180,-0.0155618414283,4365,93
181,-0.0155984386802,4366,93
182,-0.0157044418156,4367,93
183,-0.0157718937844,4368,93
184,-0.0158046372235,4369,93
185,-0.0158367175609,4370,93
186,-0.0159289315343,4371,93
187,-0.0159869994968,4372,93
188,-0.0160422958434,4373,93
189,-0.016094783321,4374,93
190,-0.0161199625582,4375,93
191,-0.0161681752652,4376,93
192,-0.0162350665778,4377,93
193,-0.0162760000676,4378,93
194,-0.0163139719516,4379,93
195,-0.0163489580154,4380,93
196,-0.0163653232157,4381,93
197,-0.0163957886398,4382,93
198,-0.0164232160896,4383,93
199,-0.0164475888014,4384,93
200,-0.0164586231112,4385,93
201,-0.016478382051,4386,93
202,-0.0165022294968,4387,93
203,-0.016514249146,4388,93
204,-0.0165231563151,4389,93
205,-0.0165289472789,4390,93
206,-0.016531618312,4391,93
207,-0.0165311694145,4392,93
208,-0.0165276005864,4393,93
209,-0.0165209174156,4394,93
210,-0.0165111217648,4395,93
211,-0.0164982210845,4396,93
212,-0.0164822265506,4397,93
213,-0.0164631456137,4398,93
214,-0.0164524540305,4399,93
215,-0.0164287723601,4400,93
216,-0.0164020415395,4401,93
217,-0.0163875389844,4402,93
218,-0.016339506954,4403,93
219,-0.0163037423044,4404,93
220,-0.0162650104612,4405,93
221,-0.016244539991,4406,93
222,-0.0161787457764,4407,93
223,-0.0161312669516,4408,93
224,-0.0161064527929,4409,93
225,-0.0160277690738,4410,93
226,-0.0160001385957,4411,93
227,-0.0159428007901,4412,93
228,-0.0158516708761,4413,93
229,-0.015819946304,4414,93
230,-0.0157545059919,4415,93
231,-0.0157207995653,4416,93
232,-0.0156157966703,4417,93
233,-0.0155426133424,4418,93
234,-0.0155050847679,4419,93
235,-0.0154281808063,4420,93
236,-0.0153082972392,4421,93
237,-0.0152254262939,4422,93
238,-0.0151831265539,4423,93
239,-0.0150968264788,4424,93
240,-0.0149632263929,4425,93
241,-0.0149176139385,4426,93
242,-0.0147776314989,4427,93
243,-0.0147299459204,4428,93
244,-0.0146330790594,4429,93
245,-0.0145342675969,4430,93
246,-0.0144841512665,4431,93
247,-0.0143310464919,4432,93
248,-0.0142791178077,4433,93
249,-0.0141207603738,4434,93
250,-0.0140671422705,4435,93
251,-0.0139587055892,4436,93
252,-0.0137931676582,4437,93
253,-0.0136809796095,4438,93
254,-0.0135674048215,4439,93
255,-0.0134525075555,4440,93
256,-0.0133363548666,4441,93
257,-0.0132190119475,4442,93
258,-0.0131599158049,4443,93
259,-0.0130409142002,4444,93
260,-0.0129208909348,4445,93
261,-0.0127999130636,4446,93
262,-0.0126780504361,4447,93
263,-0.0126168075949,4448,93
264,-0.0124319382012,4449,93
265,-0.0123078273609,4450,93
266,-0.0121831046417,4451,93
267,-0.0120578380302,4452,93
