,amplitude,tstep,vfp
0,-0.0102694397792,5120,95
1,-0.0102872019634,5121,95
2,-0.0103049278259,5122,95
3,-0.0103137763217,5123,95
4,-0.0103402622044,5124,95
5,-0.0103490687907,5125,95
6,-0.0103578642011,5126,95
7,-0.0103754233569,5127,95
8,-0.0103929340839,5128,95
9,-0.0104191061109,5129,95
10,-0.0104364883155,5130,95
11,-0.0104451579973,5131,95
12,-0.0104710832238,5132,95
13,-0.010488291271,5133,95
14,-0.0105054359883,5134,95
15,-0.0105139836669,5135,95
16,-0.0105395270512,5136,95
17,-0.0105480067432,5137,95
18,-0.0105733377859,5138,95
19,-0.0105901323259,5139,95
20,-0.0105985011905,5140,95
21,-0.0106151783839,5141,95
22,-0.0106317736208,5142,95
23,-0.01064004004,5143,95
24,-0.010664710775,5144,95
25,-0.0106810471043,5145,95
26,-0.0106972930953,5146,95
27,-0.010713445954,5147,95
28,-0.0107295019552,5148,95
29,-0.0107374936342,5149,95
30,-0.0107534024864,5150,95
31,-0.010777075775,5151,95
32,-0.0107927266508,5152,95
33,-0.0108005125076,5153,95
34,-0.0108237052336,5154,95
35,-0.0108313811943,5155,95
36,-0.0108390292153,5156,95
37,-0.0108618019149,5157,95
38,-0.0108768390492,5158,95
39,-0.0108917569742,5159,95
40,-0.0109065547585,5160,95
41,-0.0109212305397,5161,95
42,-0.0109357815236,5162,95
43,-0.0109502077103,5163,95
44,-0.0109645063058,5164,95
45,-0.01097867731,5165,95
46,-0.0109857134521,5166,95
47,-0.0109996879473,5167,95
48,-0.0110204005614,5168,95
49,-0.0110272383317,5169,95
50,-0.0110475467518,5170,95
51,-0.0110542476177,5171,95
52,-0.0110675459728,5172,95
53,-0.0110741434619,5173,95
54,-0.011093727313,5174,95
55,-0.0111066075042,5175,95
56,-0.0111193470657,5176,95
57,-0.0111256632954,5177,95
58,-0.011144396849,5178,95
59,-0.0111567070708,5179,95
60,-0.0111688738689,5180,95
61,-0.0111808953807,5181,95
62,-0.0111927725375,5182,95
63,-0.0112045044079,5183,95
64,-0.0112103158608,5184,95
65,-0.0112275322899,5185,95
66,-0.0112331975251,5186,95
67,-0.0112388273701,5187,95
68,-0.0112554971129,5188,95
69,-0.0112609807402,5189,95
70,-0.0112718390301,5190,95
71,-0.0112825520337,5191,95
72,-0.0112931206822,5192,95
73,-0.0113035449758,5193,95
74,-0.0113189099357,5194,95
75,-0.0113289738074,5195,95
76,-0.0113388942555,5196,95
77,-0.0113486722112,5197,95
78,-0.0113583086058,5198,95
79,-0.0113630741835,5199,95
80,-0.0113771604374,5200,95
81,-0.0113817863166,5201,95
82,-0.011390933767,5202,95
83,-0.0113999433815,5203,95
84,-0.011408817023,5204,95
85,-0.0114175546914,5205,95
86,-0.0114218732342,5206,95
87,-0.0114304097369,5207,95
88,-0.0114429658279,5208,95
89,-0.0114470850676,5209,95
90,-0.0114592500031,5210,95
91,-0.0114671997726,5211,95
92,-0.0114750219509,5212,95
93,-0.0114788850769,5213,95
94,-0.0114865181968,5214,95
95,-0.0114977378398,5215,95
96,-0.011501416564,5216,95
97,-0.011508683674,5217,95
98,-0.0115158325061,5218,95
99,-0.0115228639916,5219,95
100,-0.0115297790617,5220,95
101,-0.0115331942216,5221,95
102,-0.0115432683378,5222,95
103,-0.0115498453379,5223,95
104,-0.0115563133731,5224,95
105,-0.0115595059469,5225,95
106,-0.0115689253435,5226,95
107,-0.0115750720724,5227,95
108,-0.011581116356,5228,95
109,-0.0115841003135,5229,95
110,-0.0115899918601,5230,95
111,-0.0115957837552,5231,95
112,-0.0116014778614,5232,95
113,-0.0116042895243,5233,95
114,-0.0116125792265,5234,95
115,-0.011617988348,5235,95
116,-0.0116233061999,5236,95
117,-0.0116285346448,5237,95
118,-0.0116336718202,5238,95
119,-0.0116362078115,5239,95
120,-0.0116436872631,5240,95
121,-0.0116485655308,5241,95
122,-0.011653361842,5242,95
123,-0.0116580761969,5243,95
124,-0.0116604026407,5244,95
125,-0.0116672627628,5245,95
126,-0.0116695091128,5246,95
127,-0.0116739450023,5247,95
128,-0.0116783035919,5248,95
129,-0.0116825876758,5249,95
130,-0.011684701778,5250,95
131,-0.011690932326,5251,95
132,-0.0116949956864,5252,95
133,-0.0116989882663,5253,95
134,-0.011702908203,5254,95
135,-0.01170484256,5255,95
136,-0.0117105422541,5256,95
137,-0.0117142563686,5257,95
138,-0.0117179043591,5258,95
139,-0.0117197036743,5259,95
140,-0.0117250019684,5260,95
141,-0.0117267351598,5261,95
142,-0.0117301540449,5262,95
143,-0.0117318388075,5263,95
144,-0.0117367981002,5264,95
145,-0.0117400251329,5265,95
146,-0.0117431888357,5266,95
147,-0.0117462901399,5267,95
148,-0.0117493299767,5268,95
149,-0.0117523092777,5269,95
150,-0.0117537761107,5270,95
151,-0.0117580834776,5271,95
152,-0.0117608802393,5272,95
153,-0.0117622558028,5273,95
154,-0.0117662930861,5274,95
155,-0.0117689091712,5275,95
156,-0.0117701943964,5276,95
157,-0.0117714647204,5277,95
158,-0.0117751862854,5278,95
159,-0.0117763960734,5279,95
160,-0.011778770946,5280,95
161,-0.0117822224274,5281,95
162,-0.0117833418772,5282,95
163,-0.0117855370045,5283,95
164,-0.0117887156084,5284,95
165,-0.0117897456512,5285,95
166,-0.0117917591706,5286,95
167,-0.0117946658283,5287,95
168,-0.0117956036702,5288,95
169,-0.0117983249947,5289,95
170,-0.0118000619113,5290,95
171,-0.0118017364293,5291,95
172,-0.0118025504053,5292,95
173,-0.0118033485487,5293,95
174,-0.0118056489155,5294,95
175,-0.01180710271,5295,95
176,-0.0118084922433,5296,95
177,-0.0118098175153,5297,95
178,-0.0118104554713,5298,95
179,-0.0118122696877,5299,95
180,-0.011813396588,5300,95
181,-0.0118144573644,5301,95
182,-0.0118154501542,5302,95
183,-0.0118159214035,5303,95
184,-0.0118172317743,5304,95
185,-0.0118180187419,5305,95
186,-0.011818734929,5306,95
187,-0.0118190664798,5307,95
188,-0.0118196755648,5308,95
189,-0.0118202120066,5309,95
190,-0.0118206758052,5310,95
191,-0.0118208806962,5311,95
192,-0.0118212336674,5312,95
193,-0.0118215112016,5313,95
194,-0.0118217132986,5314,95
195,-0.0118218706921,5315,95
196,-0.0118218846619,5316,95
197,-0.0118218073621,5317,95
198,-0.0118216546252,5318,95
199,-0.0118215484545,5319,95
200,-0.0118211051449,5320,95
201,-0.0118207056075,5321,95
202,-0.0118204737082,5322,95
203,-0.0118199456483,5323,95
204,-0.0118196494877,5324,95
205,-0.011818991974,5325,95
206,-0.0118178380653,5326,95
207,-0.0118174087256,5327,95
208,-0.0118159847334,5328,95
209,-0.0118149202317,5329,95
210,-0.0118137607351,5330,95
211,-0.0118125043809,5331,95
212,-0.0118111502379,5332,95
213,-0.0118104368448,5333,95
214,-0.0118081457913,5334,95
215,-0.0118064917624,5335,95
216,-0.011804735288,5336,95
217,-0.0118038179353,5337,95
218,-0.0118019040674,5338,95
219,-0.0117998830974,5339,95
220,-0.0117988316342,5340,95
221,-0.0117955142632,5341,95
222,-0.0117931617424,5342,95
223,-0.0117906956002,5343,95
224,-0.0117894196883,5344,95
225,-0.0117854150012,5345,95
226,-0.0117825968191,5346,95
227,-0.0117796575651,5347,95
228,-0.0117765953764,5348,95
229,-0.0117734074593,5349,95
230,-0.0117700938135,5350,95
231,-0.011766650714,5351,95
232,-0.0117648802698,5352,95
233,-0.0117612397298,5353,95
234,-0.0117574660107,5354,95
235,-0.0117535563186,5355,95
236,-0.011749509722,5356,95
237,-0.011745323427,5357,95
238,-0.0117431767285,5358,95
239,-0.0117365214974,5359,95
240,-0.0117319030687,5360,95
241,-0.0117271365598,5361,95
242,-0.0117222191766,5362,95
243,-0.0117171481252,5363,95
244,-0.0117119234055,5364,95
245,-0.0117065412924,5365,95
246,-0.0117009989917,5366,95
247,-0.0116981677711,5367,95
248,-0.0116952955723,5368,95
249,-0.0116894301027,5369,95
250,-0.0116833979264,5370,95
251,-0.0116740353405,5371,95
252,-0.0116708287969,5372,95
253,-0.0116609493271,5373,95
254,-0.011654144153,5374,95
255,-0.0116506749764,5375,95
256,-0.0116399982944,5376,95
257,-0.0116326529533,5377,95
258,-0.0116251232103,5378,95
259,-0.0116174072027,5379,95
260,-0.0116095012054,5380,95
261,-0.0116014052182,5381,95
262,-0.0115972841159,5382,95
263,-0.0115888966247,5383,95
264,-0.0115803116933,5384,95
265,-0.01157152839,5385,95
266,-0.0115625439212,5386,95
267,-0.011553356424,5387,95
268,-0.0115439649671,5388,95
269,-0.0115391910076,5389,95
270,-0.0115245580673,5390,95
271,-0.0115145388991,5391,95
272,-0.0115043064579,5392,95
273,-0.0114938588813,5393,95
274,-0.0114885540679,5394,95
275,-0.011477779597,5395,95
276,-0.0114667844027,5396,95
277,-0.0114498762414,5397,95
278,-0.0114441281185,5398,95
279,-0.0114324633032,5399,95
280,-0.0114265447482,5400,95
281,-0.0100089330226,5105,95
282,-0.0100179789588,5106,95
283,-0.0100450990722,5107,95
284,-0.0100631630048,5108,95
285,-0.010081211105,5109,95
286,-0.0100902300328,5110,95
287,-0.0101082539186,5111,95
288,-0.0101262591779,5112,95
289,-0.0101442448795,5113,95
290,-0.0101622082293,5114,95
291,-0.0101801492274,5115,95
292,-0.0101980650797,5116,95
293,-0.0102159539238,5117,95
294,-0.0102248871699,5118,95
295,-0.0102516431361,5119,95
0,-0.0101970136166,5120,96
1,-0.0102040776983,5121,96
2,-0.0102250762284,5122,96
3,-0.0102389175445,5123,96
4,-0.0102457925677,5124,96
5,-0.0102594457567,5125,96
6,-0.010272976011,5126,96
7,-0.0102796945721,5127,96
8,-0.0102996723726,5128,96
9,-0.0103062707931,5129,96
10,-0.0103258956224,5130,96
11,-0.0103388335556,5131,96
12,-0.0103516606614,5132,96
13,-0.0103643750772,5133,96
14,-0.0103769814596,5134,96
15,-0.0103894798085,5135,96
16,-0.010401872918,5136,96
17,-0.0104080308229,5137,96
18,-0.0104202711955,5138,96
19,-0.0104384431615,5139,96
20,-0.0104444520548,5140,96
21,-0.0104504358023,5141,96
22,-0.0104682501405,5142,96
23,-0.0104800099507,5143,96
24,-0.0104916822165,5144,96
25,-0.0104974852875,5145,96
26,-0.0105147659779,5146,96
27,-0.0105204861611,5147,96
28,-0.0105375209823,5148,96
29,-0.0105431582779,5149,96
30,-0.0105599574745,5150,96
31,-0.0105655193329,5151,96
32,-0.0105820922181,5152,96
33,-0.0105930510908,5153,96
34,-0.010603941977,5154,96
35,-0.0106093604118,5155,96
36,-0.0106201479211,5156,96
37,-0.0106308711693,5157,96
38,-0.0106362085789,5158,96
39,-0.0106468359008,5159,96
40,-0.0106626600027,5160,96
41,-0.0106731345877,5161,96
42,-0.0106783490628,5162,96
43,-0.0106887361035,5163,96
44,-0.0106990681961,5164,96
45,-0.010714459233,5165,96
46,-0.0107246534899,5166,96
47,-0.0107347937301,5167,96
48,-0.010739846155,5168,96
49,-0.0107499090955,5169,96
50,-0.0107599198818,5170,96
51,-0.0107698813081,5171,96
52,-0.0107797915116,5172,96
53,-0.0107847284526,5173,96
54,-0.0107994647697,5174,96
55,-0.0108092278242,5175,96
56,-0.0108140902594,5176,96
57,-0.010828605853,5177,96
58,-0.0108334198594,5178,96
59,-0.0108430115506,5179,96
60,-0.0108573073521,5180,96
61,-0.0108667779714,5181,96
62,-0.0108714941889,5182,96
63,-0.0108855701983,5183,96
64,-0.0108902351931,5184,96
65,-0.0109041593969,5185,96
66,-0.0109087750316,5186,96
67,-0.0109179681167,5187,96
68,-0.0109271090478,5188,96
69,-0.0109361968935,5189,96
70,-0.0109452316537,5190,96
71,-0.0109542133287,5191,96
72,-0.0109586827457,5192,96
73,-0.0109675806016,5193,96
74,-0.0109808202833,5194,96
75,-0.0109895737842,5195,96
76,-0.0109939286485,5196,96
77,-0.0110069038346,5197,96
78,-0.0110154766589,5198,96
79,-0.0110239889473,5199,96
80,-0.0110282190144,5200,96
81,-0.0110366335139,5201,96
82,-0.0110408160836,5202,96
83,-0.0110532613471,5203,96
84,-0.0110573768616,5204,96
85,-0.0110696172342,5205,96
86,-0.0110776890069,5206,96
87,-0.0110856890678,5207,96
88,-0.0110896620899,5208,96
89,-0.0111014656723,5209,96
90,-0.0111092375591,5210,96
91,-0.0111130950972,5211,96
92,-0.0111245485023,5212,96
93,-0.0111283250153,5213,96
94,-0.0111358193681,5214,96
95,-0.011146903038,5215,96
96,-0.0111505556852,5216,96
97,-0.0111541869119,5217,96
98,-0.0111649511382,5218,96
99,-0.0111684957519,5219,96
100,-0.0111755179241,5220,96
101,-0.0111858835444,5221,96
102,-0.0111926812679,5222,96
103,-0.011196045205,5223,96
104,-0.0112027032301,5224,96
105,-0.0112125128508,5225,96
106,-0.0112189333886,5226,96
107,-0.0112221082672,5227,96
108,-0.0112314876169,5228,96
109,-0.011234565638,5229,96
110,-0.0112436525524,5230,96
111,-0.0112466318533,5231,96
112,-0.011252517812,5232,96
113,-0.0112583031878,5233,96
114,-0.0112611576915,5234,96
115,-0.0112667940557,5235,96
116,-0.0112723298371,5236,96
117,-0.0112804463133,5237,96
118,-0.0112857315689,5238,96
119,-0.0112883364782,5239,96
120,-0.0112960031256,5240,96
121,-0.0112985083833,5241,96
122,-0.0113058751449,5242,96
123,-0.0113106630743,5243,96
124,-0.0113153513521,5244,96
125,-0.0113176601008,5245,96
126,-0.0113222012296,5246,96
127,-0.0113244364038,5247,96
128,-0.0113309957087,5248,96
129,-0.0113331349567,5249,96
130,-0.0113394111395,5250,96
131,-0.0113434763625,5251,96
132,-0.0113474512473,5252,96
133,-0.011349405162,5253,96
134,-0.0113551309332,5254,96
135,-0.0113569963723,5255,96
136,-0.011360659264,5256,96
137,-0.0113642374054,5257,96
138,-0.0113694462925,5258,96
139,-0.0113728148863,5259,96
140,-0.0113744698465,5260,96
141,-0.0113777182996,5261,96
142,-0.0113793136552,5262,96
143,-0.0113839833066,5263,96
144,-0.0113870017231,5264,96
145,-0.0113899474964,5265,96
146,-0.0113928234205,5266,96
147,-0.0113942343742,5267,96
148,-0.0113970050588,5268,96
149,-0.0114010376856,5269,96
150,-0.0114036453888,5270,96
151,-0.0114061878994,5271,96
152,-0.0114086717367,5272,96
153,-0.0114110969007,5273,96
154,-0.01141346246,5274,96
155,-0.01141577214,5275,96
156,-0.0114169064909,5276,96
157,-0.0114191342145,5277,96
158,-0.0114213097841,5278,96
159,-0.011422378011,5279,96
160,-0.0114255063236,5280,96
161,-0.0114275310189,5281,96
162,-0.0114295082167,5282,96
163,-0.0114314369857,5283,96
164,-0.0114323850721,5284,96
165,-0.0114351585507,5285,96
166,-0.011436060071,5286,96
167,-0.0114378314465,5287,96
168,-0.0114404074848,5288,96
169,-0.0114420708269,5289,96
170,-0.0114436903968,5290,96
171,-0.011445267126,5291,96
172,-0.0114460401237,5292,96
173,-0.0114475516602,5293,96
174,-0.0114482911304,5294,96
175,-0.0114497402683,5295,96
176,-0.0114518320188,5296,96
177,-0.0114531703293,5297,96
178,-0.0114538222551,5298,96
179,-0.0114557119086,5299,96
180,-0.011456319131,5300,96
181,-0.0114580662921,5301,96
182,-0.0114591708407,5302,96
183,-0.0114602241665,5303,96
184,-0.011461224407,5304,96
185,-0.0114617049694,5305,96
186,-0.0114630628377,5306,96
187,-0.0114634875208,5307,96
188,-0.0114638963714,5308,96
189,-0.0114650372416,5309,96
190,-0.0114653874189,5310,96
191,-0.0114663392305,5311,96
192,-0.0114668915048,5312,96
193,-0.0114671420306,5313,96
194,-0.0114677883685,5314,96
195,-0.0114679662511,5315,96
196,-0.0114683881402,5316,96
197,-0.0114685706794,5317,96
198,-0.0114686721936,5318,96
199,-0.0114686917514,5319,96
200,-0.0114686181769,5320,96
201,-0.0114684579894,5321,96
202,-0.0114683425054,5322,96
203,-0.0114680416882,5323,96
204,-0.0114676421508,5324,96
205,-0.0114671420306,5325,96
206,-0.0114665394649,5326,96
207,-0.0114658297971,5327,96
208,-0.011465433985,5328,96
209,-0.0114645576105,5329,96
210,-0.0114630274475,5330,96
211,-0.011461859569,5331,96
212,-0.0114612309262,5332,96
213,-0.0114598795772,5333,96
214,-0.0114576136693,5334,96
215,-0.011455941014,5335,96
216,-0.0114541351795,5336,96
217,-0.0114531796426,5337,96
218,-0.0114511661232,5338,96
219,-0.011449011974,5339,96
220,-0.0114467134699,5340,96
221,-0.0114442687482,5341,96
222,-0.0114416740835,5342,96
223,-0.0114389266819,5343,96
224,-0.0114374952391,5344,96
225,-0.0114329643548,5345,96
226,-0.0114297447726,5346,96
227,-0.011426362209,5347,96
228,-0.0114228148013,5348,96
229,-0.0114191006869,5349,96
230,-0.0114152161404,5350,96
231,-0.0114132100716,5351,96
232,-0.0114090656862,5352,96
233,-0.011404749006,5353,96
234,-0.0114002525806,5354,96
235,-0.0113955773413,5355,96
236,-0.0113907232881,5356,96
237,-0.0113856839016,5357,96
238,-0.0113830957562,5358,96
239,-0.0113750491291,5359,96
240,-0.0113694500178,5360,96
241,-0.011363661848,5361,96
242,-0.0113576790318,5362,96
243,-0.0113515043631,5363,96
244,-0.011345135048,5364,96
245,-0.0113418772817,5365,96
246,-0.0113352127373,5366,96
247,-0.0113283488899,5367,96
248,-0.0113212876022,5368,96
249,-0.0113140242174,5369,96
250,-0.0113103175536,5370,96
251,-0.0113027496263,5371,96
252,-0.0112949796021,5372,96
253,-0.0112829385325,5373,96
254,-0.0112788220868,5374,96
255,-0.011266162619,5375,96
256,-0.0112574631348,5376,96
257,-0.0112485531718,5377,96
258,-0.0112440194935,5378,96
259,-0.0112301027402,5379,96
260,-0.0112205604091,5380,96
261,-0.0112157100812,5381,96
262,-0.0112058511004,5382,96
263,-0.0111957788467,5383,96
264,-0.0111906621605,5384,96
265,-0.0111802676693,5385,96
266,-0.0111642731354,5386,96
267,-0.0111533422023,5387,96
268,-0.0111477952451,5388,96
269,-0.0111308312044,5389,96
270,-0.0111192511395,5390,96
271,-0.0111074540764,5391,96
272,-0.0110954372212,5392,96
273,-0.0110832042992,5393,96
274,-0.0110707515851,5394,96
275,-0.0110580818728,5395,96
276,-0.011045191437,5396,96
277,-0.0110386647284,5397,96
278,-0.0110254455358,5398,96
279,-0.0110120074823,5399,96
280,-0.0110052060336,5400,96
281,-0.0100017283112,5107,96
282,-0.010017555207,5108,96
283,-0.010041045025,5109,96
284,-0.0100488066673,5110,96
285,-0.0100565366447,5111,96
286,-0.0100795188919,5112,96
287,-0.0100946715102,5113,96
288,-0.0101021984592,5114,96
289,-0.0101245772094,5115,96
290,-0.0101393274963,5116,96
291,-0.0101539464667,5117,96
292,-0.0101612070575,5118,96
293,-0.0101827885956,5119,96
0,-0.0103927934542,5120,97
1,-0.0104119805619,5121,97
2,-0.010421554558,5122,97
3,-0.0104501973838,5123,97
4,-0.0104692233726,5124,97
5,-0.0104787163436,5125,97
6,-0.0104976603761,5126,97
7,-0.0105165475979,5127,97
8,-0.0105353780091,5128,97
9,-0.0105541497469,5129,97
10,-0.0105728628114,5130,97
11,-0.0105915172026,5131,97
12,-0.0106101119891,5132,97
13,-0.0106286453083,5133,97
14,-0.0106471162289,5134,97
15,-0.0106563288718,5135,97
16,-0.0106838718057,5136,97
17,-0.0107021536678,5137,97
18,-0.0107203712687,5138,97
19,-0.0107294553891,5139,97
20,-0.0107475742698,5140,97
21,-0.0107656251639,5141,97
22,-0.0107836099342,5142,97
23,-0.0108015267178,5143,97
24,-0.010819375515,5144,97
25,-0.0108371553943,5145,97
26,-0.0108548663557,5146,97
27,-0.0108636952937,5147,97
28,-0.0108813000843,5148,97
29,-0.0109075736254,5149,97
30,-0.0109249996021,5150,97
31,-0.0109423529357,5151,97
32,-0.0109596345574,5152,97
33,-0.0109682483599,5153,97
34,-0.0109939770773,5154,97
35,-0.011002516374,5155,97
36,-0.011019539088,5156,97
37,-0.0110364872962,5157,97
38,-0.0110449334607,5158,97
39,-0.0110701601952,5159,97
40,-0.0110868830234,5160,97
41,-0.0110952164978,5161,97
42,-0.0111201023683,5162,97
43,-0.0111365970224,5163,97
44,-0.0111448159441,5164,97
45,-0.0111693572253,5165,97
46,-0.0111856218427,5166,97
47,-0.0112018110231,5167,97
48,-0.0112179229036,5168,97
49,-0.0112339584157,5169,97
50,-0.011249916628,5170,97
51,-0.0112578673288,5171,97
52,-0.0112737100571,5172,97
53,-0.011281603016,5173,97
54,-0.0112973302603,5174,97
55,-0.0113207763061,5175,97
56,-0.0113363098353,5176,97
57,-0.0113517688587,5177,97
58,-0.0113671496511,5178,97
59,-0.0113824540749,5179,97
60,-0.0113900778815,5180,97
61,-0.0114128356799,5181,97
62,-0.0114279119298,5182,97
63,-0.0114429108799,5183,97
64,-0.0114578343928,5184,97
65,-0.0114726833999,5185,97
66,-0.0114800790325,5186,97
67,-0.0114874551073,5187,97
68,-0.0115094715729,5188,97
69,-0.0115240551531,5189,97
70,-0.0115385651588,5190,97
71,-0.011545792222,5191,97
72,-0.0115673607215,5192,97
73,-0.0115816462785,5193,97
74,-0.011588761583,5194,97
75,-0.0116099957377,5195,97
76,-0.0116240587085,5196,97
77,-0.0116380481049,5197,97
78,-0.0116519639269,5198,97
79,-0.0116658071056,5199,97
80,-0.0116795767099,5200,97
81,-0.0116864331067,5201,97
82,-0.0117000918835,5202,97
83,-0.0117068942636,5203,97
84,-0.0117271915078,5204,97
85,-0.0117339203134,5205,97
86,-0.0117539959028,5206,97
87,-0.0117672877386,5207,97
88,-0.0117739066482,5208,97
89,-0.0117936516181,5209,97
90,-0.0118067236617,5210,97
91,-0.0118197211996,5211,97
92,-0.0118326451629,5212,97
93,-0.0118454946205,5213,97
94,-0.0118582695723,5214,97
95,-0.0118709690869,5215,97
96,-0.0118772899732,5216,97
97,-0.0118898767978,5217,97
98,-0.0119023881853,5218,97
99,-0.011908615008,5219,97
100,-0.0119210099801,5220,97
101,-0.011939458549,5221,97
102,-0.0119516607374,5222,97
103,-0.011963782832,5223,97
104,-0.0119758257642,5224,97
105,-0.011987789534,5225,97
106,-0.0119996732101,5226,97
107,-0.0120055843145,5227,97
108,-0.012023194693,5228,97
109,-0.0120290229097,5229,97
110,-0.0120463818312,5230,97
111,-0.0120521262288,5231,97
112,-0.012057849206,5232,97
