,amplitude,tstep,vfp
0,-0.0100505333394,5209,92
1,-0.01010310743,5210,92
2,-0.0101293474436,5211,92
3,-0.0102078737691,5212,92
4,-0.0102600632235,5213,92
5,-0.0102861085907,5214,92
6,-0.0103640435264,5215,92
7,-0.0103899538517,5216,92
8,-0.0104416739196,5217,92
9,-0.010493257083,5218,92
10,-0.0105447014794,5219,92
11,-0.0105703705922,5220,92
12,-0.0106471646577,5221,92
13,-0.0106726912782,5222,92
14,-0.0107236364856,5223,92
15,-0.0107744345441,5224,92
16,-0.0108250854537,5225,92
17,-0.0109007824212,5226,92
18,-0.0109510580078,5227,92
19,-0.0110011808574,5228,92
20,-0.0110261840746,5229,92
21,-0.0111009618267,5230,92
22,-0.011125809513,5231,92
23,-0.0111753856763,5232,92
24,-0.0112248016521,5233,92
25,-0.0112740565091,5234,92
26,-0.011323149316,5235,92
27,-0.0113720782101,5236,92
28,-0.0113964816555,5237,92
29,-0.0114694396034,5238,92
30,-0.0115178693086,5239,92
31,-0.0115420203656,5240,92
32,-0.0116142192855,5241,92
33,-0.0116621376947,5242,92
34,-0.0116860317066,5243,92
35,-0.0117336902767,5244,92
36,-0.0118048498407,5245,92
37,-0.0118284812197,5246,92
38,-0.0118756117299,5247,92
39,-0.0118991099298,5248,92
40,-0.0119459722191,5249,92
41,-0.0119926538318,5250,92
42,-0.0120623372495,5251,92
43,-0.0121085643768,5252,92
44,-0.0121546071023,5253,92
45,-0.0122004663572,5254,92
46,-0.0122461393476,5255,92
47,-0.0122916260734,5256,92
48,-0.0123369246721,5257,92
49,-0.0123595036566,5258,92
50,-0.0124269565567,5259,92
51,-0.0124716870487,5260,92
52,-0.0124939810485,5261,92
53,-0.012538424693,5262,92
54,-0.0125826764852,5263,92
55,-0.0126267354935,5264,92
56,-0.0126486923546,5265,92
57,-0.012714272365,5266,92
58,-0.0127577492967,5267,92
59,-0.0128010306507,5268,92
60,-0.0128225982189,5269,92
61,-0.0128870056942,5270,92
62,-0.0129296984524,5271,92
63,-0.0129721937701,5272,92
64,-0.0129933664575,5273,92
65,-0.0130565883592,5274,92
66,-0.0130775626749,5275,92
67,-0.013119363226,5276,92
68,-0.0131609635428,5277,92
69,-0.0132023645565,5278,92
70,-0.0132435644045,5279,92
71,-0.0132845649496,5280,92
72,-0.0133253643289,5281,92
73,-0.0133456885815,5282,92
74,-0.0134063614532,5283,92
75,-0.0134264854714,5284,92
76,-0.0134865557775,5285,92
77,-0.0135263511911,5286,92
78,-0.0135659435764,5287,92
79,-0.0135856643319,5288,92
80,-0.0136445239186,5289,92
81,-0.0136835109442,5290,92
82,-0.0137222968042,5291,92
83,-0.013741614297,5292,92
84,-0.0137800965458,5293,92
85,-0.0137992622331,5294,92
86,-0.013837441802,5295,92
87,-0.0138943316415,5296,92
88,-0.013932004571,5297,92
89,-0.0139694772661,5298,92
90,-0.0140067469329,5299,92
91,-0.0140438145027,5300,92
92,-0.0140806799755,5301,92
93,-0.0140990372747,5302,92
94,-0.01415380463,5303,92
95,-0.0141900638118,5304,92
96,-0.0142081174999,5305,92
97,-0.0142440721393,5306,92
98,-0.0142798256129,5307,92
99,-0.0143153769895,5308,92
100,-0.0143330767751,5309,92
101,-0.0143683245406,5310,92
102,-0.0144033720717,5311,92
103,-0.0144555633888,5312,92
104,-0.0144901061431,5313,92
105,-0.014524445869,5314,92
106,-0.0145585844293,5315,92
107,-0.0145925199613,5316,92
108,-0.0146262533963,5317,92
109,-0.0146597847342,5318,92
110,-0.0146931139752,5319,92
111,-0.0147262420505,5320,92
112,-0.0147591670975,5321,92
113,-0.0147755537182,5322,92
114,-0.0147918900475,5323,92
115,-0.0148405944929,5324,92
116,-0.0148567277938,5325,92
117,-0.0149048250169,5326,92
118,-0.0149207562208,5327,92
119,-0.0149524658918,5328,92
120,-0.0149996494874,5329,92
121,-0.0150152752176,5330,92
122,-0.015046373941,5331,92
123,-0.0150772687048,5332,92
124,-0.0151232304052,5333,92
125,-0.0151536166668,5334,92
126,-0.0151837989688,5335,92
127,-0.01519881282,5336,92
128,-0.0152286877856,5337,92
129,-0.0152583578601,5338,92
130,-0.0152878221124,5339,92
131,-0.0153170814738,5340,92
132,-0.0153461340815,5341,92
133,-0.0153749817982,5342,92
134,-0.0153893278912,5343,92
135,-0.0154320569709,5344,92
136,-0.0154602844268,5345,92
137,-0.0154883041978,5346,92
138,-0.0155022358522,5347,92
139,-0.0155299426988,5348,92
140,-0.0155711127445,5349,92
141,-0.0155847324058,5350,92
142,-0.0156252756715,5351,92
143,-0.0156386848539,5352,92
144,-0.0156520418823,5353,92
145,-0.015691800043,5354,92
146,-0.0157049465925,5355,92
147,-0.0157440714538,5356,92
148,-0.0157698895782,5357,92
149,-0.0157954953611,5358,92
150,-0.0158208906651,5359,92
151,-0.0158460717648,5360,92
152,-0.0158710405231,5361,92
153,-0.0158957969397,5362,92
154,-0.0159203372896,5363,92
155,-0.0159446634352,5364,92
156,-0.0159567464143,5365,92
157,-0.0159926712513,5366,92
158,-0.0160045381635,5367,92
159,-0.0160281099379,5368,92
160,-0.0160514656454,5369,92
161,-0.0160746034235,5370,92
162,-0.0160975269973,5371,92
163,-0.0161202289164,5372,92
164,-0.0161314979196,5373,92
165,-0.0161649808288,5374,92
166,-0.0161760319024,5375,92
167,-0.016197970137,5376,92
168,-0.0162196885794,5377,92
169,-0.0162411853671,5378,92
170,-0.0162730161101,5379,92
171,-0.0162939596921,5380,92
172,-0.0163146816194,5381,92
173,-0.0163249596953,5382,92
174,-0.0163351837546,5383,92
175,-0.0163655169308,5384,92
176,-0.01637551561,5385,92
177,-0.016405178234,5386,92
178,-0.0164246745408,5387,92
179,-0.0164343398064,5388,92
180,-0.0164629947394,5389,92
181,-0.0164724327624,5390,92
182,-0.0164911411703,5391,92
183,-0.0165187809616,5392,92
184,-0.0165369212627,5393,92
185,-0.0165548380464,5394,92
186,-0.0165725257248,5395,92
187,-0.0165899861604,5396,92
188,-0.0166072193533,5397,92
189,-0.0166157484055,5398,92
190,-0.0166326388717,5399,92
191,-0.0166409965605,5400,92
0,-0.0100391898304,5214,93
1,-0.0100668063387,5215,93
2,-0.0101219890639,5216,93
3,-0.0101771019399,5217,93
4,-0.0102046318352,5218,93
5,-0.0102871069685,5219,93
6,-0.0103419935331,5220,93
7,-0.01039679721,5221,93
8,-0.0104515170678,5222,93
9,-0.0105061493814,5223,93
10,-0.0105606904253,5224,93
11,-0.0106151374057,5225,93
12,-0.0106694865972,5226,93
13,-0.0107237352058,5227,93
14,-0.0107778804377,5228,93
15,-0.0108319185674,5229,93
16,-0.0108858477324,5230,93
17,-0.0109127694741,5231,93
18,-0.0109665272757,5232,93
19,-0.0110201667994,5233,93
20,-0.0110736852512,5234,93
21,-0.0111270779744,5235,93
22,-0.0111537259072,5236,93
23,-0.011206923984,5237,93
24,-0.0112599879503,5238,93
25,-0.0113393263891,5239,93
26,-0.0113920411095,5240,93
27,-0.011418344453,5241,93
28,-0.0114708393812,5242,93
29,-0.0115492958575,5243,93
30,-0.0115753700957,5244,93
31,-0.0116273993626,5245,93
32,-0.0116792665794,5246,93
33,-0.0117309680209,5247,93
34,-0.0117824999616,5248,93
35,-0.0118338596076,5249,93
36,-0.0118850432336,5250,93
37,-0.0119360452518,5251,93
38,-0.0119614778087,5252,93
39,-0.0120374960825,5253,93
40,-0.0120627405122,5254,93
41,-0.0121381822973,5255,93
42,-0.0121632311493,5256,93
43,-0.0122380731627,5257,93
44,-0.0122629189864,5258,93
45,-0.0123124523088,5259,93
46,-0.0123617742211,5260,93
47,-0.0124108809978,5261,93
48,-0.0124597689137,5262,93
49,-0.0125084333122,5263,93
50,-0.0125568713993,5264,93
51,-0.012605080381,5265,93
52,-0.0126530546695,5266,93
53,-0.0127007914707,5267,93
54,-0.0127245690674,5268,93
55,-0.0127955377102,5269,93
56,-0.0128190713003,5270,93
57,-0.0128892939538,5271,93
58,-0.0129357883707,5272,93
59,-0.0129820238799,5273,93
60,-0.0130279967561,5274,93
61,-0.0130508840084,5275,93
62,-0.013096456416,5276,93
63,-0.0131191415712,5277,93
64,-0.0131643060595,5278,93
65,-0.0132315335795,5279,93
66,-0.0132760005072,5280,93
67,-0.0133201815188,5281,93
68,-0.0133640747517,5282,93
69,-0.0133859114721,5283,93
70,-0.0134509801865,5284,93
71,-0.0134939877316,5285,93
72,-0.013536692597,5286,93
73,-0.0135790929198,5287,93
74,-0.0136211859062,5288,93
75,-0.0136629678309,5289,93
76,-0.0136837419122,5290,93
77,-0.0137455873191,5291,93
78,-0.0137660428882,5292,93
79,-0.0138067118824,5293,93
80,-0.0138269253075,5294,93
81,-0.0138870757073,5295,93
82,-0.0139267640188,5296,93
83,-0.0139661189169,5297,93
84,-0.013985671103,5298,93
85,-0.0140245230868,5299,93
86,-0.0140821635723,5300,93
87,-0.014101206325,5301,93
88,-0.014139033854,5302,93
89,-0.0141765139997,5303,93
90,-0.0142320804298,5304,93
91,-0.0142686851323,5305,93
92,-0.0143049359322,5306,93
93,-0.014322928153,5307,93
94,-0.0143408300355,5308,93
95,-0.01439399831,5309,93
96,-0.014411540702,5310,93
97,-0.014463624917,5311,93
98,-0.0144808040932,5312,93
99,-0.0145317921415,5313,93
100,-0.0145653244108,5314,93
101,-0.0145984860137,5315,93
102,-0.0146312778816,5316,93
103,-0.0146636981517,5317,93
104,-0.0146957440302,5318,93
105,-0.014727415517,5319,93
106,-0.0147587107494,5320,93
107,-0.0147896297276,5321,93
108,-0.0148049481213,5322,93
109,-0.014835299924,5323,93
110,-0.0148652717471,5324,93
111,-0.0148948654532,5325,93
112,-0.014909519814,5326,93
113,-0.0149529101327,5327,93
114,-0.0149813601747,5328,93
115,-0.0149954427034,5329,93
116,-0.0150371165946,5330,93
117,-0.0150644211099,5331,93
118,-0.0150913447142,5332,93
119,-0.015104662627,5333,93
120,-0.015144043602,5334,93
121,-0.0151698198169,5335,93
122,-0.0151825649664,5336,93
123,-0.0152077693492,5337,93
124,-0.0152325928211,5338,93
125,-0.0152570353821,5339,93
126,-0.0152810979635,5340,93
127,-0.0152929872274,5341,93
128,-0.0153280869126,5342,93
129,-0.0153510160744,5343,93
130,-0.0153735680506,5344,93
131,-0.0153957447037,5345,93
132,-0.0154066924006,5346,93
133,-0.0154389766976,5347,93
134,-0.0154495518655,5348,93
135,-0.0154807241634,5349,93
136,-0.0154909295961,5350,93
137,-0.0155209954828,5351,93
138,-0.0155308349058,5352,93
139,-0.0155502408743,5353,93
140,-0.015569283627,5354,93
141,-0.0155879659578,5355,93
142,-0.0156062897295,5356,93
143,-0.0156153179705,5357,93
144,-0.0156331062317,5358,93
145,-0.0156505424529,5359,93
146,-0.0156760383397,5360,93
147,-0.0156925991178,5361,93
148,-0.0157088153064,5362,93
149,-0.015724690631,5363,93
150,-0.0157402232289,5364,93
151,-0.0157554205507,5365,93
152,-0.015770284459,5366,93
153,-0.0157775916159,5367,93
154,-0.015791958198,5368,93
155,-0.0157990176231,5369,93
156,-0.0158197116107,5370,93
157,-0.0158331058919,5371,93
158,-0.0158461816609,5372,93
159,-0.0158526021987,5373,93
160,-0.0158652048558,5374,93
161,-0.0158835295588,5375,93
162,-0.0158953666687,5376,93
163,-0.0159068983048,5377,93
164,-0.0159181337804,5378,93
165,-0.0159236397594,5379,93
166,-0.0159344337881,5380,93
167,-0.0159449391067,5381,93
168,-0.015955157578,5382,93
169,-0.0159650929272,5383,93
170,-0.0159747507423,5384,93
171,-0.0159841328859,5385,93
172,-0.0159887224436,5386,93
173,-0.0160020887852,5387,93
174,-0.0160106699914,5388,93
175,-0.0160189904273,5389,93
176,-0.0160270575434,5390,93
177,-0.0160348694772,5391,93
178,-0.0160424355417,5392,93
179,-0.0160461273044,5393,93
180,-0.0160568393767,5394,93
181,-0.0160602927208,5395,93
182,-0.0160702988505,5396,93
183,-0.0160766839981,5397,93
184,-0.0160797908902,5398,93
185,-0.0160858407617,5399,93
186,-0.0160887818784,5400,93
0,-0.0100164907053,5210,94
1,-0.010043554008,5211,94
2,-0.0100975818932,5212,94
3,-0.0101783713326,5213,94
4,-0.0102320555598,5214,94
5,-0.0102855972946,5215,94
6,-0.0103123141453,5216,94
7,-0.0103656342253,5217,94
8,-0.010392238386,5218,94
9,-0.010445330292,5219,94
10,-0.0105246752501,5220,94
11,-0.010577371344,5221,94
12,-0.0106299044564,5222,94
13,-0.0106822708622,5223,94
14,-0.0107344668359,5224,94
15,-0.0107605000958,5225,94
16,-0.0108124371618,5226,94
17,-0.0108900107443,5227,94
18,-0.0109415007755,5228,94
19,-0.0109671773389,5229,94
20,-0.0110183916986,5230,94
21,-0.0110694188625,5231,94
22,-0.0110948625952,5232,94
23,-0.0111709050834,5233,94
24,-0.0112213566899,5234,94
25,-0.01127161365,5235,94
26,-0.0112966680899,5236,94
27,-0.0113715315238,5237,94
28,-0.011396384798,5238,94
29,-0.0114706372842,5239,94
30,-0.0114952856675,5240,94
31,-0.0115689197555,5241,94
32,-0.0115933604538,5242,94
33,-0.0116663649678,5243,94
34,-0.0117147695273,5244,94
35,-0.0117629598826,5245,94
36,-0.0117869740352,5246,94
37,-0.0118109351024,5247,94
38,-0.0118586923927,5248,94
39,-0.0119299199432,5249,94
40,-0.0119535522535,5250,94
41,-0.0120006520301,5251,94
42,-0.0120708867908,5252,94
43,-0.0121174324304,5253,94
44,-0.0121406214312,5254,94
45,-0.0121868317947,5255,94
46,-0.0122328167781,5256,94
47,-0.0122785773128,5257,94
48,-0.0123241124675,5258,94
49,-0.0123919900507,5259,94
50,-0.0124145029113,5260,94
51,-0.0124593582004,5261,94
52,-0.0125039862469,5262,94
53,-0.0125262150541,5263,94
54,-0.0125925596803,5264,94
55,-0.012636504136,5265,94
56,-0.0126583902165,5266,94
57,-0.0127237085253,5267,94
58,-0.0127669684589,5268,94
59,-0.0128100020811,5269,94
60,-0.0128528075293,5270,94
61,-0.0128741245717,5271,94
62,-0.0129377357662,5272,94
63,-0.0129798594862,5273,94
64,-0.0130008356646,5274,94
65,-0.0130634251982,5275,94
66,-0.0130841750652,5276,94
67,-0.0131255062297,5277,94
68,-0.0131666110829,5278,94
69,-0.0132074905559,5279,94
70,-0.0132481465116,5280,94
71,-0.0132885770872,5281,94
72,-0.0133287832141,5282,94
73,-0.0133488029242,5283,94
74,-0.0134085286409,5284,94
75,-0.0134283257648,5285,94
76,-0.0134873837233,5286,94
77,-0.0135264797136,5287,94
78,-0.0135653540492,5288,94
79,-0.013584708795,5289,94
80,-0.0136424424127,5290,94
81,-0.0136615773663,5291,94
82,-0.0136996833608,5292,94
83,-0.0137186544016,5293,94
84,-0.0137752415612,5294,94
85,-0.0137939956039,5295,94
86,-0.0138499317691,5296,94
87,-0.0138869527727,5297,94
88,-0.0139237586409,5298,94
89,-0.0139603493735,5299,94
90,-0.0139967249706,5300,94
91,-0.0140328854322,5301,94
92,-0.0140508851036,5302,94
93,-0.0141045646742,5303,94
94,-0.0141400843859,5304,94
95,-0.014157765545,5305,94
96,-0.0142104886472,5306,94
97,-0.0142279574648,5307,94
98,-0.0142453722656,5308,94
99,-0.0142973000184,5309,94
100,-0.0143316537142,5310,94
101,-0.014348750934,5311,94
102,-0.0143827879801,5312,94
103,-0.0144334454089,5313,94
104,-0.0144669534639,5314,94
105,-0.0145002501085,5315,94
106,-0.014533335343,5316,94
107,-0.0145662091672,5317,94
108,-0.0145825669169,5318,94
109,-0.014631322585,5319,94
110,-0.0146474679932,5320,94
111,-0.014695587568,5321,94
112,-0.0147115215659,5322,94
113,-0.0147432303056,5323,94
114,-0.0147590050474,5324,94
115,-0.0148060079664,5325,94
116,-0.0148215694353,5326,94
117,-0.0148525312543,5327,94
118,-0.0148985730484,5328,94
119,-0.0149289993569,5329,94
120,-0.0149592095986,5330,94
121,-0.0149892037734,5331,94
122,-0.0150189818814,5332,94
123,-0.01504854206,5333,94
124,-0.0150778852403,5334,94
125,-0.0151070086285,5335,94
126,-0.0151359122247,5336,94
127,-0.0151502816007,5337,94
128,-0.0151788555086,5338,94
129,-0.0152072096244,5339,94
130,-0.0152353420854,5340,94
131,-0.0152632500976,5341,94
132,-0.0152909364551,5342,94
133,-0.0153046948835,5343,94
134,-0.0153456330299,5344,94
135,-0.0153726432472,5345,94
136,-0.0153994262218,5346,94
137,-0.0154259819537,5347,94
138,-0.015452307649,5348,94
139,-0.0154784042388,5349,94
140,-0.0154913654551,5350,94
141,-0.0155299026519,5351,94
142,-0.0155426329002,5352,94
143,-0.0155679173768,5353,94
144,-0.0155929680914,5354,94
145,-0.0156177841127,5355,94
146,-0.0156423635781,5356,94
147,-0.0156667064875,5357,94
148,-0.0156787894666,5358,94
149,-0.0157027766109,5359,94
150,-0.0157383084297,5360,94
151,-0.0157616958022,5361,94
152,-0.0157848410308,5362,94
153,-0.0158077459782,5363,94
154,-0.0158304087818,5364,94
155,-0.0158528275788,5365,94
156,-0.0158639457077,5366,94
157,-0.0158859975636,5367,94
158,-0.015907805413,5368,94
159,-0.0159293673933,5369,94
160,-0.0159506816417,5370,94
161,-0.015961246565,5371,94
162,-0.0159925688058,5372,94
163,-0.0160131398588,5373,94
164,-0.0160334631801,5374,94
165,-0.0160535369068,5375,94
166,-0.0160634797066,5376,94
167,-0.016092935577,5377,94
168,-0.0161122586578,5378,94
169,-0.0161313302815,5379,94
170,-0.0161501523107,5380,94
171,-0.0161687210202,5381,94
172,-0.016177913174,5382,94
173,-0.0161961056292,5383,94
174,-0.0162140484899,5384,94
175,-0.0162317361683,5385,94
176,-0.0162491742522,5386,94
177,-0.0162577982992,5387,94
178,-0.016283294186,5388,94
179,-0.0162999778986,5389,94
180,-0.0163164082915,5390,94
181,-0.0163245294243,5391,94
182,-0.0163485165685,5392,94
183,-0.0163641944528,5393,94
184,-0.0163719393313,5394,94
185,-0.0163872409612,5395,94
186,-0.0164097286761,5396,94
187,-0.0164244063199,5397,94
188,-0.0164316520095,5398,94
189,-0.0164459571242,5399,94
190,-0.0164530165493,5400,94
0,-0.0100361518562,4677,95
1,-0.0100873112679,4678,95
2,-0.0101382257417,4679,95
3,-0.010188896209,4680,95
4,-0.0102141397074,4681,95
5,-0.0102895023301,4682,95
6,-0.0103394398466,4683,95
7,-0.0103891324252,4684,95
8,-0.0104385809973,4685,95
9,-0.0104632135481,4686,95
10,-0.0105122951791,4687,95
11,-0.010536743328,4688,95
12,-0.0106097199023,4689,95
13,-0.0106339231133,4690,95
14,-0.010682143271,4691,95
15,-0.0107540087774,4692,95
16,-0.0108016096056,4693,95
17,-0.0108253164217,4694,95
18,-0.0108960615471,4695,95
19,-0.0109429107979,4696,95
20,-0.0109895067289,4697,95
21,-0.0110358493403,4698,95
22,-0.0110589247197,4699,95
23,-0.0111277680844,4700,95
24,-0.0111505873501,4701,95
25,-0.0111960312352,4702,95
26,-0.0112412162125,4703,95
27,-0.0112637104467,4704,95
28,-0.0113307982683,4705,95
29,-0.0113751934841,4706,95
30,-0.011419323273,4707,95
31,-0.0114631867036,4708,95
32,-0.0114850169048,4709,95
33,-0.0115501023829,4710,95
34,-0.0115716615692,4711,95
35,-0.0116359274834,4712,95
36,-0.0116784283891,4713,95
37,-0.0117206498981,4714,95
38,-0.0117625929415,4715,95
39,-0.0118042547256,4716,95
40,-0.0118249803782,4717,95
41,-0.0118662165478,4718,95
42,-0.0119071677327,4719,95
43,-0.0119478339329,4720,95
44,-0.0119882104918,4721,95
45,-0.0120282974094,4722,95
46,-0.0120482305065,4723,95
47,-0.0121075911447,4724,95
48,-0.0121467970312,4725,95
49,-0.0121662886813,4726,95
50,-0.0122243175283,4727,95
51,-0.0122626293451,4728,95
52,-0.0123006403446,4729,95
53,-0.012338350527,4730,95
54,-0.0123757561669,4731,95
55,-0.0123943453655,4732,95
56,-0.012431293726,4733,95
57,-0.0124679366127,4734,95
58,-0.0124861430377,4735,95
59,-0.0125402985141,4736,95
60,-0.0125581966713,4737,95
61,-0.0126114254817,4738,95
62,-0.0126290125772,4739,95
63,-0.0126813082024,4740,95
64,-0.0127157820389,4741,95
65,-0.0127499429509,4742,95
66,-0.0127669060603,4743,95
67,-0.0128173250705,4744,95
68,-0.0128505462781,4745,95
69,-0.0128834526986,4746,95
70,-0.0128997880965,4747,95
71,-0.0129322232679,4748,95
72,-0.0129643455148,4749,95
73,-0.0129961520433,4750,95
74,-0.0130276456475,4751,95
75,-0.013043275103,4752,95
76,-0.0130742974579,4753,95
77,-0.0131202451885,4754,95
78,-0.0131504861638,4755,95
79,-0.0131654897705,4756,95
80,-0.0131952641532,4757,95
81,-0.0132393427193,4758,95
82,-0.0132538806647,4759,95
83,-0.0132827246562,4760,95
84,-0.0133112603799,4761,95
85,-0.0133394887671,4762,95
86,-0.0133534893394,4763,95
87,-0.0133950309828,4764,95
88,-0.0134223457426,4765,95
89,-0.0134493587539,4766,95
90,-0.0134760709479,4767,95
91,-0.0135024851188,4768,95
92,-0.0135286012664,4769,95
93,-0.0135415485129,4770,95
94,-0.0135799469426,4771,95
95,-0.0136051801965,4772,95
96,-0.01361768879,4773,95
97,-0.0136547796428,4774,95
98,-0.0136791486293,4775,95
99,-0.0136912260205,4776,95
100,-0.0137151684612,4777,95
101,-0.0137388296425,4778,95
102,-0.0137622114271,4779,95
103,-0.0137853156775,4780,95
104,-0.0138081461191,4781,95
105,-0.0138307036832,4782,95
106,-0.0138418814167,4783,95
107,-0.0138750104234,4784,95
108,-0.0138967651874,4785,95
109,-0.0139075433835,4786,95
110,-0.0139394858852,4787,95
111,-0.0139604583383,4788,95
112,-0.0139811737463,4789,95
113,-0.0140016367659,4790,95
114,-0.0140117742121,4791,95
115,-0.0140318619087,4792,95
116,-0.0140517028049,4793,95
117,-0.014061531052,4794,95
118,-0.0140906516463,4795,95
119,-0.0141097651795,4796,95
120,-0.0141286421567,4797,95
121,-0.0141472844407,4798,95
122,-0.014165693894,4799,95
123,-0.014183874242,4800,95
124,-0.014201826416,4801,95
125,-0.0142195541412,4802,95
126,-0.0142283346504,4803,95
127,-0.0142543436959,4804,95
128,-0.014262904413,4805,95
129,-0.0142882606015,4806,95
130,-0.0142966052517,4807,95
131,-0.0143131371588,4808,95
132,-0.0143294576555,4809,95
133,-0.0143455695361,4810,95
134,-0.0143614755943,4811,95
135,-0.0143771776929,4812,95
