,amplitude,tstep,vfp
0,-0.010008841753,4248,98
1,-0.010083832778,4249,98
2,-0.0101557327434,4250,98
3,-0.0102244419977,4251,98
4,-0.0102898636833,4252,98
5,-0.0103213116527,4253,98
6,-0.0103816334158,4254,98
7,-0.0104655204341,4255,98
8,-0.0104916850105,4256,98
9,-0.0105646699667,4257,98
10,-0.0106086544693,4258,98
11,-0.0106488345191,4259,98
12,-0.0106851635501,4260,98
13,-0.0107018705457,4261,98
14,-0.0107461009175,4262,98
15,-0.0107588674873,4263,98
16,-0.0107814176008,4264,98
17,-0.0107911974192,4265,98
18,-0.010814525187,4266,98
19,-0.0108202928677,4267,98
20,-0.0108288191259,4268,98
21,-0.0108333323151,4269,98
22,-0.0108325975016,4270,98
23,-0.0108271287754,4271,98
24,-0.0108177047223,4272,98
25,-0.0108115207404,4273,98
26,-0.0107871247455,4274,98
27,-0.010766047053,4275,98
28,-0.0107411751524,4276,98
29,-0.0107125602663,4277,98
30,-0.0106968693435,4278,98
31,-0.0106627568603,4279,98
32,-0.0106250634417,4280,98
33,-0.010583858937,4281,98
34,-0.01053922344,4282,98
35,-0.0104912370443,4283,98
36,-0.0104399863631,4284,98
37,-0.0103855635971,4285,98
38,-0.0103280609474,4286,98
39,-0.0102675789967,4287,98
40,-0.0102042164654,4288,98
41,-0.0101714888588,4289,98
42,-0.0100692808628,4290,98
43,-0.0100339148194,4291,98
0,0.0119715332985,5120,99
1,0.0121166519821,5121,99
2,0.0216004606336,5183,99
3,0.0122627625242,5122,99
4,0.012409848161,5123,99
5,0.0126322712749,5124,99
6,0.012706881389,5125,99
7,0.0128567926586,5126,99
8,0.0216701030731,5184,99
9,0.013007607311,5127,99
10,0.0131593057886,5128,99
11,0.0133118648082,5129,99
12,0.0134652638808,5130,99
13,0.013619475998,5131,99
14,0.0218763258308,5185,99
15,0.013774478808,5132,99
16,0.0138522693887,5133,99
17,0.0140867540613,5134,99
18,0.0142439696938,5135,99
19,0.0144018651918,5136,99
20,0.0219441372901,5186,99
21,0.0145604098216,5137,99
22,0.0233001243323,5197,99
23,0.0146399158984,5138,99
24,0.0147993769497,5139,99
25,0.0149594079703,5140,99
26,0.0151199745014,5141,99
27,0.0220783110708,5187,99
28,0.0152004463598,5142,99
29,0.0154425678775,5143,99
30,0.0156045220792,5144,99
31,0.0157668646425,5145,99
32,-0.0100037995726,4252,99
33,-0.010107322596,4253,99
34,-0.0102108148858,4254,99
35,-0.010314239189,4255,99
36,-0.0104175582528,4256,99
37,-0.0105207320303,4257,99
38,-0.0106237214059,4258,99
39,-0.0107264881954,4259,99
40,-0.0108289923519,4260,99
41,-0.0109311956912,4261,99
42,-0.0109821725637,4262,99
43,-0.0110838506371,4263,99
44,-0.0111851291731,4264,99
45,-0.0112859681249,4265,99
46,-0.0113362111151,4266,99
47,-0.0114363180473,4267,99
48,-0.0115854553878,4268,99
49,-0.0116841401905,4269,99
50,-0.0117332451046,4270,99
51,-0.0118795540184,4271,99
52,-0.0119279716164,4272,99
53,-0.0120242461562,4273,99
54,-0.012167185545,4274,99
55,-0.0122144185007,4275,99
56,-0.0123548097908,4276,99
57,-0.0124472612515,4277,99
58,-0.0124931288883,4278,99
59,-0.0125841237605,4279,99
60,-0.0126740988344,4280,99
61,-0.0127630112693,4281,99
62,-0.0128508210182,4282,99
63,-0.0128942998126,4283,99
64,-0.0130229741335,4284,99
65,-0.0131072374061,4285,99
66,-0.0131902387366,4286,99
67,-0.0132312532514,4287,99
68,-0.0133522963151,4288,99
69,-0.0133919604123,4289,99
70,-0.0134702324867,4290,99
71,-0.0135849304497,4291,99
72,-0.0136224199086,4292,99
73,-0.0136962579563,4293,99
74,-0.0137325963005,4294,99
75,-0.0138040883467,4295,99
76,-0.0139082958922,4296,99
77,-0.0139422053471,4297,99
78,-0.0140413884073,4298,99
79,-0.0140735870227,4299,99
80,-0.0141675332561,4300,99
81,-0.0142279127613,4301,99
82,-0.0142864538357,4302,99
83,-0.0143431220204,4303,99
84,-0.0143978865817,4304,99
85,-0.0144507158548,4305,99
86,-0.0145015781745,4306,99
87,-0.0145262638107,4307,99
88,-0.0145741244778,4308,99
89,-0.0146199492738,4309,99
90,-0.0146420896053,4310,99
91,-0.0146848103032,4311,99
92,-0.0147449448705,4312,99
93,-0.0147823709995,4313,99
94,-0.014817642048,4314,99
95,-0.0148507356644,4315,99
96,-0.0148664601147,4316,99
97,-0.0148962549865,4317,99
98,-0.0149367777631,4318,99
99,-0.0149609940127,4319,99
100,-0.0149829555303,4320,99
101,-0.0149930883199,4321,99
102,-0.0150116505101,4322,99
103,-0.0150279346853,4323,99
104,-0.0150419343263,4324,99
105,-0.01504807733,4325,99
106,-0.0150630706921,4326,99
107,-0.0150702027604,4327,99
108,-0.0150750465691,4328,99
109,-0.0150776058435,4329,99
110,-0.0150780295953,4330,99
111,-0.0150758931413,4331,99
112,-0.0150716416538,4332,99
113,-0.0150686707348,4333,99
114,-0.0150564052165,4334,99
115,-0.0150454510003,4335,99
116,-0.0150391487405,4336,99
117,-0.015016968362,4337,99
118,-0.0149994846433,4338,99
119,-0.0149899432436,4339,99
120,-0.014969278127,4340,99
121,-0.0149465277791,4341,99
122,-0.0149217229337,4342,99
123,-0.0148948999122,4343,99
124,-0.0148807419464,4344,99
125,-0.0148353399709,4345,99
126,-0.0148192467168,4346,99
127,-0.0147856539115,4347,99
128,-0.0147502226755,4348,99
129,-0.0146937286481,4349,99
130,-0.0146740302444,4350,99
131,-0.0146333696321,4351,99
132,-0.0145910680294,4352,99
133,-0.0145246591419,4353,99
134,-0.0145017635077,4354,99
135,-0.0144548760727,4355,99
136,-0.0144309001043,4356,99
137,-0.0143569372594,4357,99
138,-0.0143060116097,4358,99
139,-0.0142800891772,4359,99
140,-0.0142005812377,4360,99
141,-0.0141462134197,4361,99
142,-0.0140908388421,4362,99
143,-0.014062795788,4363,99
144,-0.0139773571864,4364,99
145,-0.0139194000512,4365,99
146,-0.0138901509345,4366,99
147,-0.0138014350086,4367,99
148,-0.0137415807694,4368,99
149,-0.0137114711106,4369,99
150,-0.0136509370059,4370,99
151,-0.0135900471359,4371,99
152,-0.0135288843885,4372,99
153,-0.0134675297886,4373,99
154,-0.0134060652927,4374,99
155,-0.013344572857,4375,99
156,-0.0132831372321,4376,99
157,-0.0132218394428,4377,99
158,-0.0131607614458,4378,99
159,-0.0131303304806,4379,99
160,-0.01306973584,4380,99
161,-0.0129796685651,4381,99
162,-0.0129202920943,4382,99
163,-0.0128615442663,4383,99
164,-0.0128324301913,4384,99
165,-0.0128035042435,4385,99
166,-0.0127179436386,4386,99
167,-0.0126898624003,4387,99
168,-0.0126344161108,4388,99
169,-0.0125531768426,4389,99
170,-0.0125266490504,4390,99
171,-0.0124744763598,4391,99
172,-0.0124235395342,4392,99
173,-0.012349604629,4393,99
174,-0.0123020587489,4394,99
175,-0.0122788334265,4395,99
176,-0.0122335171327,4396,99
177,-0.0121684949845,4397,99
178,-0.0121272020042,4398,99
179,-0.01210719347,4399,99
180,-0.0120684849098,4400,99
181,-0.0120315654203,4401,99
182,-0.0119964862242,4402,99
183,-0.011963292025,4403,99
184,-0.0119320293888,4404,99
185,-0.0119027402252,4405,99
186,-0.011875461787,4406,99
187,-0.0118625890464,4407,99
188,-0.0118383960798,4408,99
189,-0.0118060456589,4409,99
190,-0.0117871453986,4410,99
191,-0.0117785045877,4411,99
192,-0.0117628546432,4412,99
193,-0.0117434933782,4413,99
194,-0.0117381447926,4414,99
195,-0.0117333512753,4415,99
196,-0.0117254322395,4416,99
197,-0.0117197474465,4417,99
198,-0.0117154149339,4418,99
199,-0.0117153255269,4419,99
200,-0.0117174703628,4420,99
201,-0.0117218419909,4421,99
202,-0.0117284301668,4422,99
203,-0.0117372199893,4423,99
204,-0.0117481974885,4424,99
205,-0.0117544997483,4425,99
206,-0.011776628904,4426,99
207,-0.0117850685492,4427,99
208,-0.0118135269731,4428,99
209,-0.0118240462616,4429,99
210,-0.0118466084823,4430,99
211,-0.0118586421013,4431,99
212,-0.0118976980448,4432,99
213,-0.0119261424989,4433,99
214,-0.0119564607739,4434,99
215,-0.0119886044413,4435,99
216,-0.0120225241408,4436,99
217,-0.0120581649244,4437,99
218,-0.0120766134933,4438,99
219,-0.0121343852952,4439,99
220,-0.012154427357,4440,99
221,-0.0122167952359,4441,99
222,-0.0122601641342,4442,99
223,-0.0123048862442,4443,99
224,-0.012327734381,4444,99
225,-0.0123508954421,4445,99
226,-0.0124221667647,4446,99
227,-0.0124464901164,4447,99
228,-0.0125210275874,4448,99
229,-0.0125719336793,4449,99
230,-0.0126237208024,4450,99
231,-0.0126499198377,4451,99
232,-0.0127296270803,4452,99
233,-0.0127835879102,4453,99
234,-0.012838114053,4454,99
235,-0.0128931226209,4455,99
236,-0.0129485335201,4456,99
237,-0.0130042647943,4457,99
238,-0.0130602326244,4458,99
239,-0.0130882803351,4459,99
240,-0.0131444502622,4460,99
241,-0.0131725519896,4461,99
242,-0.013256800361,4462,99
243,-0.0132848303765,4463,99
244,-0.0133686149493,4464,99
245,-0.0133964084089,4465,99
246,-0.0134517308325,4466,99
247,-0.0135339051485,4467,99
248,-0.0135880317539,4468,99
249,-0.0136148678139,4469,99
250,-0.0136943561956,4470,99
251,-0.0137464003637,4471,99
252,-0.0137721095234,4472,99
253,-0.0138478754088,4473,99
254,-0.0138971600682,4474,99
255,-0.0139214079827,4475,99
256,-0.0139690684155,4476,99
257,-0.014015561901,4477,99
258,-0.0140608195215,4478,99
259,-0.0141047751531,4479,99
260,-0.0141473663971,4480,99
261,-0.0141885299236,4481,99
262,-0.0142085580155,4482,99
263,-0.0142663381994,4483,99
264,-0.0142848072574,4484,99
265,-0.0143377445638,4485,99
266,-0.0143545456231,4486,99
267,-0.0144023252651,4487,99
268,-0.014431935735,4488,99
269,-0.0144596965984,4489,99
270,-0.0144728701562,4490,99
271,-0.0144855650142,4491,99
272,-0.014509501867,4492,99
273,-0.0145314689726,4493,99
274,-0.0145606473088,4494,99
275,-0.014577537775,4495,99
276,-0.01459234301,4496,99
277,-0.0146050350741,4497,99
278,-0.0146105811,4498,99
279,-0.0146239819005,4499,99
280,-0.0146273616701,4500,99
281,-0.0146342068911,4501,99
282,-0.014636005275,4502,99
283,-0.0146355768666,4503,99
284,-0.0146329086274,4504,99
285,-0.0146307311952,4505,99
286,-0.014624687843,4506,99
287,-0.0146163888276,4507,99
288,-0.0146058294922,4508,99
289,-0.014599702321,4509,99
290,-0.0145779298618,4510,99
291,-0.0145605942234,4511,99
292,-0.0145510816947,4512,99
293,-0.0145303728059,4513,99
294,-0.0144951166585,4514,99
295,-0.0144822504371,4515,99
296,-0.014440337196,4516,99
297,-0.0144096501172,4517,99
298,-0.0143934888765,4518,99
299,-0.0143417641521,4519,99
300,-0.0143234496936,4520,99
301,-0.0142852282152,4521,99
302,-0.014244902879,4522,99
303,-0.0142024988309,4523,99
304,-0.014180525206,4524,99
305,-0.0141115570441,4525,99
306,-0.0140630751848,4526,99
307,-0.014012625441,4527,99
308,-0.0139866722748,4528,99
309,-0.013933329843,4529,99
310,-0.0138781005517,4530,99
311,-0.0137917911634,4531,99
312,-0.0137319946662,4532,99
313,-0.013670434244,4533,99
314,-0.0136390049011,4534,99
315,-0.0135748712346,4535,99
316,-0.0135090686381,4536,99
317,-0.0134416380897,4537,99
318,-0.0133726196364,4538,99
319,-0.0133020542562,4539,99
320,-0.0132299838588,4540,99
321,-0.0131933968514,4541,99
322,-0.0131191462278,4542,99
323,-0.0130051607266,4543,99
324,-0.0129274930805,4544,99
325,-0.0128881726414,4545,99
326,-0.0128085864708,4546,99
327,-0.0127277746797,4547,99
328,-0.0126043567434,4548,99
329,-0.0125626530498,4549,99
330,-0.0124784335494,4550,99
331,-0.0124359279871,4551,99
332,-0.0123068969697,4552,99
333,-0.0122633995488,4553,99
334,-0.0121315270662,4554,99
335,-0.0120871271938,4555,99
336,-0.0119526805356,4556,99
337,-0.0118620647117,4557,99
338,-0.0117707112804,4558,99
339,-0.0116786640137,4559,99
340,-0.0116323940456,4560,99
341,-0.0114926612005,4561,99
342,-0.0113987894729,4562,99
343,-0.011304394342,4563,99
344,-0.011257013306,4564,99
345,-0.01116191037,4565,99
346,-0.0110663864762,4566,99
347,-0.0110184792429,4567,99
348,-0.0108742350712,4568,99
349,-0.0107776867226,4569,99
350,-0.0106808738783,4570,99
351,-0.0105838365853,4571,99
352,-0.01053524483,4572,99
353,-0.0103892292827,4573,99
354,-0.0103404931724,4574,99
355,-0.0101941525936,4575,99
356,-0.0100965239108,4576,99
357,-0.0100477011874,4577,99
358,0.0236688181758,5201,99
359,0.0235149301589,5199,99
360,0.0237678606063,5202,99
361,0.0238639954478,5203,99
362,0.0239571612328,5204,99
363,0.0240026116371,5205,99
364,0.0240912139416,5206,99
365,0.0236182250082,5200,99
366,0.0242182649672,5207,99
367,0.0242989845574,5208,99
368,0.0243764556944,5209,99
369,0.0244506262243,5210,99
370,0.0245214421302,5211,99
371,0.0245888568461,5212,99
372,0.0246528238058,5213,99
373,0.0246834997088,5214,99
374,0.024770218879,5215,99
375,0.0247973389924,5216,99
376,0.0248488672078,5217,99
377,0.0248732641339,5218,99
378,0.0249409321696,5219,99
379,0.0249813906848,5220,99
380,0.0250002108514,5221,99
381,0.0250509791076,5222,99
382,0.0250800400972,5223,99
383,0.0251052360982,5224,99
384,0.0251163765788,5225,99
385,0.0251439232379,5226,99
386,0.0251511372626,5227,99
387,0.0100170588121,4740,99
388,0.0101177282631,4741,99
389,0.010417861864,4742,99
390,0.0106162503362,4743,99
391,0.0108131524175,4744,99
392,0.0109110111371,4745,99
393,0.0111054750159,4746,99
394,0.0112981805578,4747,99
395,0.0113938394934,4748,99
396,0.0116778835654,4749,99
397,0.011864669621,4750,99
398,0.0120492707938,4751,99
399,0.0122315827757,4752,99
400,0.0124115040526,4753,99
401,0.0125889321789,4754,99
402,0.0127637684345,4755,99
403,0.0128501839936,4756,99
404,0.0131052741781,4757,99
405,0.0132717508823,4758,99
406,0.0134352510795,4759,99
407,0.0135956835002,4760,99
408,0.0137529587373,4761,99
409,0.0138303851709,4762,99
410,0.0139069901779,4763,99
411,0.0140576930717,4764,99
412,0.0142049826682,4765,99
413,0.014348779805,4766,99
414,0.0145577564836,4767,99
415,0.0146255847067,4768,99
416,0.0148234535009,4769,99
417,0.0148875080049,4770,99
418,0.0150738507509,4771,99
419,0.0151931466535,4772,99
420,0.0152512919158,4773,99
421,0.0154196247458,4774,99
422,0.0155266933143,4775,99
423,0.015578661114,4776,99
424,0.0156794320792,4777,99
425,0.0157282240689,4778,99
426,0.0158681515604,4779,99
427,0.0159126278013,4780,99
428,0.0160394832492,4781,99
429,0.0161185320467,4782,99
430,0.0161563884467,4783,99
431,0.0162287410349,4784,99
432,0.0163288190961,4785,99
433,0.0163898672909,4786,99
434,0.0164463557303,4787,99
435,0.0164982639253,4788,99
436,0.0165455751121,4789,99
437,0.0165882781148,4790,99
438,0.0166263636202,4791,99
439,0.0166436731815,4792,99
440,0.0166748221964,4793,99
441,0.0166886616498,4794,99
442,0.0167232397944,4795,99
443,0.0167405121028,4796,99
444,0.0167531687766,4797,99
445,0.0167612154037,4798,99
446,0.0167646687478,4799,99
447,0.0167646761984,4800,99
448,0.0167578514665,4801,99
449,0.0167476218194,4802,99
450,0.0167328733951,4803,99
451,0.0167136341333,4804,99
452,0.0167023371905,4805,99
453,0.0166764110327,4806,99
454,0.0166460685432,4807,99
455,0.0166113395244,4808,99
456,0.0165722668171,4809,99
457,0.0165288858116,4810,99
458,0.016505593434,4811,99
459,0.0164558291435,4812,99
460,0.0164018664509,4813,99
461,0.0163131542504,4814,99
462,0.0162489041686,4815,99
463,0.0161806289107,4816,99
464,0.0161083824933,4817,99
465,0.0160322189331,4818,99
466,0.0159521978348,4819,99
467,0.0158683769405,4820,99
468,0.0158250611275,4821,99
469,0.015735656023,4822,99
470,0.0156426094472,4823,99
471,0.0155459865928,4824,99
472,0.0154458535835,4825,99
473,0.015342278406,4826,99
474,0.0152892218903,4827,99
475,0.0151806147769,4828,99
476,0.0150116048753,4829,99
477,0.0148949734867,4830,99
478,0.0147752603516,4831,99
479,0.0146525427699,4832,99
480,0.0145268980414,4833,99
481,0.0143984053284,4834,99
482,0.0142671400681,4835,99
483,0.0141331842169,4836,99
484,0.0139966187999,4837,99
485,0.0139273833483,4838,99
486,0.0137870563194,4839,99
487,0.0136443246156,4840,99
488,0.0134992711246,4841,99
489,0.0134258996695,4842,99
490,0.0132025359198,4843,99
491,0.0130510246381,4844,99
492,0.012897528708,4845,99
493,0.0127421366051,4846,99
494,0.0125849340111,4847,99
495,0.0125056803226,4848,99
496,0.0123459240422,4849,99
497,0.0121033294126,4850,99
498,0.0120217185467,4851,99
499,0.0117747997865,4852,99
500,0.0116918347776,4853,99
501,0.0116085587069,4854,99
502,0.011356972158,4855,99
503,0.0111878914759,4856,99
504,0.0110178301111,4857,99
505,0.010846872814,4858,99
506,0.0107610858977,4859,99
507,0.0105026206002,4860,99
508,0.0103294979781,4861,99
509,0.010155826807,4862,99
510,0.0100688124076,4863,99
511,0.0245769377798,5248,99
512,0.0245054028928,5249,99
513,0.0244299061596,5250,99
514,0.0243906807154,5251,99
515,0.0242671296,5252,99
516,0.0241799037904,5253,99
517,0.0240888260305,5254,99
518,0.0222105048597,5188,99
519,0.0239939317107,5255,99
520,0.0238952543586,5256,99
521,0.0238445084542,5257,99
522,0.0236866977066,5258,99
523,0.0235768966377,5259,99
524,0.0235206335783,5260,99
525,0.023405412212,5261,99
526,0.0233464632183,5262,99
527,0.0231643375009,5263,99
528,0.023038579151,5264,99
529,0.0229094047099,5265,99
530,0.022843554616,5266,99
531,0.0226410161704,5267,99
532,0.0225019082427,5268,99
533,0.0223595947027,5269,99
534,0.0222872551531,5270,99
535,0.0220655892044,5271,99
536,0.0219140090048,5272,99
537,0.0217594560236,5273,99
538,0.0216019898653,5274,99
539,0.0161741524935,5148,99
540,0.0159295536578,5146,99
541,0.0223406497389,5189,99
542,0.0160110164434,5147,99
543,0.0202448964119,5283,99
544,0.010026557371,3035,99
545,0.0101817492396,3036,99
546,0.010233190842,3037,99
547,0.0103356186301,3038,99
548,0.0104374140501,3039,99
549,0.0105385472998,3040,99
550,0.0106389895082,3041,99
551,0.0106889428571,3042,99
552,0.0108376881108,3043,99
553,0.010935889557,3044,99
554,0.0109846908599,3045,99
555,0.0110816778615,3046,99
556,0.0111778229475,3047,99
557,0.0113204047084,3048,99
558,0.0113674830645,3049,99
559,0.0114609468728,3050,99
560,0.0115993646905,3051,99
561,0.0116450181231,3052,99
562,0.0117355780676,3053,99
563,0.0117804789916,3054,99
564,0.0118695087731,3055,99
565,0.0120010813698,3056,99
566,0.0120874503627,3057,99
567,0.0121727185324,3058,99
568,0.0122149344534,3059,99
569,0.0123398741707,3060,99
570,0.0124217225239,3061,99
571,0.0125023936853,3062,99
572,0.0125818690285,3063,99
573,0.0126601327211,3064,99
574,0.0127371679991,3065,99
575,0.0127752199769,3066,99
576,0.0128874927759,3067,99
577,0.0129242818803,3068,99
578,0.012960751541,3069,99
579,0.0130327250808,3070,99
580,0.0131382439286,3071,99
581,0.0131727596745,3072,99
582,0.0132407965139,3073,99
583,0.013307498768,3074,99
584,0.0134050259367,3075,99
585,0.0134683446959,3076,99
586,0.0135302953422,3077,99
587,0.013560754247,3078,99
588,0.0136206364259,3079,99
589,0.0136791300029,3080,99
590,0.0137642528862,3081,99
591,0.0138192484155,3082,99
592,0.013846218586,3083,99
593,0.0138990981504,3084,99
594,0.0139505630359,3085,99
595,0.0140006076545,3086,99
596,0.0140250967816,3087,99
597,0.0140730068088,3088,99
598,0.0141421966255,3089,99
599,0.0141645455733,3090,99
600,0.014208172448,3091,99
601,0.014270930551,3092,99
602,0.0142911355942,3093,99
603,0.0143496058881,3094,99
604,0.0143867991865,3095,99
605,0.0144225666299,3096,99
606,0.0144569082186,3097,99
607,0.014473545365,3098,99
608,0.0145057532936,3099,99
609,0.0145213250071,3100,99
610,0.0145514067262,3101,99
611,0.0145938806236,3102,99
612,0.0146204363555,3103,99
613,0.0146331880242,3104,99
614,0.0146693447605,3105,99
615,0.0146917067468,3106,99
616,0.0147126810625,3107,99
617,0.0147226499394,3108,99
618,0.0147415529937,3109,99
619,0.0147673366591,3110,99
620,0.0147828217596,3111,99
621,0.0147900544107,3112,99
622,0.0148035073653,3113,99
623,0.0148156145588,3114,99
624,0.0148263834417,3115,99
625,0.0148312691599,3116,99
626,0.0148400459439,3117,99
627,0.014850740321,3118,99
628,0.0148562341928,3119,99
629,0.0148604288697,3120,99
630,0.0148633336648,3121,99
631,0.0148649560288,3122,99
632,0.0148652894422,3123,99
633,0.0148643888533,3124,99
634,0.0148634575307,3125,99
635,0.0148606579751,3126,99
636,0.0148566160351,3127,99
637,0.0148513391614,3128,99
638,0.0148448366672,3129,99
639,0.0148371169344,3130,99
640,0.0148281892762,3131,99
641,0.0148180630058,3132,99
642,0.0148067465052,3133,99
643,0.0148006444797,3134,99
644,0.0147805782035,3135,99
645,0.0147657440975,3136,99
646,0.0147497570142,3137,99
647,0.0147326234728,3138,99
648,0.0147143527865,3139,99
649,0.0146949542686,3140,99
650,0.0146744372323,3141,99
651,0.0146528091282,3142,99
652,0.0146415820345,3143,99
653,0.0146183064207,3144,99
654,0.0145939402282,3145,99
655,0.0145684955642,3146,99
656,0.0145553704351,3147,99
657,0.0145143987611,3148,99
658,0.0144857633859,3149,99
659,0.0144560821354,3150,99
660,0.0144408522174,3151,99
661,0.0143936136737,3152,99
662,0.0143773555756,3153,99
663,0.0143270576373,3154,99
664,0.0142922662199,3155,99
