,amplitude,tstep,vfp
0,-0.0100249629468,4358,98
1,-0.0100547093898,4359,98
2,-0.0100834425539,4360,98
3,-0.0101111391559,4361,98
4,-0.0101377712563,4362,98
5,-0.0101506803185,4363,98
6,-0.0101877506822,4364,98
7,-0.0101995430887,4365,98
8,-0.0102222738788,4366,98
9,-0.0102541856468,4367,98
10,-0.0102739837021,4368,98
11,-0.0102834347636,4369,98
12,-0.010301428847,4370,98
13,-0.0103182066232,4371,98
14,-0.0103337597102,4372,98
15,-0.0103410743177,4373,98
16,-0.0103611648083,4374,98
17,-0.0103730084375,4375,98
18,-0.0103784650564,4376,98
19,-0.0103884506971,4377,98
20,-0.0104011064395,4378,98
21,-0.0104047078639,4379,98
22,-0.0104109942913,4380,98
23,-0.0104181403294,4381,98
24,-0.010421404615,4382,98
25,-0.0104234805331,4383,98
26,-0.0104240803048,4384,98
27,-0.010424407199,4385,98
28,-0.0104241436347,4386,98
29,-0.010421667248,4387,98
30,-0.0104202898219,4388,98
31,-0.0104145454243,4389,98
32,-0.0104094091803,4390,98
33,-0.0104032624513,4391,98
34,-0.0103961322457,4392,98
35,-0.0103880539536,4393,98
36,-0.0103790638968,4394,98
37,-0.0103691983968,4395,98
38,-0.0103639485314,4396,98
39,-0.0103469928727,4397,98
40,-0.0103347329423,4398,98
41,-0.0103283300996,4399,98
42,-0.0103150131181,4400,98
43,-0.0103010460734,4401,98
44,-0.0102938329801,4402,98
45,-0.0102713471279,4403,98
46,-0.0102635873482,4404,98
47,-0.0102477092296,4405,98
48,-0.0102230804041,4406,98
49,-0.0102146817371,4407,98
50,-0.0101889912039,4408,98
51,-0.0101802852005,4409,98
52,-0.0101626962423,4410,98
53,-0.0101359663531,4411,98
54,-0.0101179881021,4412,98
55,-0.0101089701056,4413,98
56,-0.0100909043103,4414,98
57,-0.01008186955,4415,98
58,-0.0100548351184,4416,98
59,-0.0100369257852,4417,98
60,-0.0100191645324,4418,98
61,-0.0100015951321,4419,98
62,-0.0100026829168,4483,98
63,-0.0100162075832,4484,98
64,-0.0100247431546,4485,98
65,-0.0100288549438,4486,98
66,-0.0100405300036,4487,98
67,-0.0100477300584,4488,98
68,-0.0100544393063,4489,98
69,-0.0100576002151,4490,98
70,-0.0100635299459,4491,98
71,-0.010068914853,4492,98
72,-0.0100737409666,4493,98
73,-0.0100779943168,4494,98
74,-0.0100816609338,4495,98
75,-0.0100832711905,4496,98
76,-0.0100871967152,4497,98
77,-0.0100890528411,4498,98
78,-0.0100897504017,4499,98
79,-0.0100909182802,4500,98
80,-0.0100909993052,4501,98
81,-0.0100903203711,4502,98
82,-0.0100891059265,4503,98
83,-0.0100882714614,4504,98
84,-0.0100861554965,4505,98
85,-0.0100834490731,4506,98
86,-0.010081877932,4507,98
87,-0.0100763132796,4508,98
88,-0.0100741814822,4509,98
89,-0.0100669777021,4510,98
90,-0.010061529465,4511,98
91,-0.0100555839017,4512,98
92,-0.0100491652265,4513,98
93,-0.0100457845256,4514,98
94,-0.0100349998102,4515,98
95,-0.0100311990827,4516,98
96,-0.0100192287937,4517,98
97,-0.0100108087063,4518,98
98,-0.0100064761937,4519,98
0,-0.0100169340149,4295,99
1,-0.0100762471557,4296,99
2,-0.0101347696036,4297,99
3,-0.0101637328044,4298,99
4,-0.0102494154125,4299,99
5,-0.0103055266663,4300,99
6,-0.0103332763538,4301,99
7,-0.0104152904823,4302,99
8,-0.0104689309373,4303,99
9,-0.010521735996,4304,99
10,-0.0105737000704,4305,99
11,-0.0105993645266,4306,99
12,-0.0106750819832,4307,99
13,-0.0106998933479,4308,99
14,-0.0107488697395,4309,99
15,-0.010796982795,4310,99
16,-0.0108442250639,4311,99
17,-0.0108905937523,4312,99
18,-0.0109360832721,4313,99
19,-0.0109806908295,4314,99
20,-0.0110244117677,4315,99
21,-0.0110672432929,4316,99
22,-0.0111091826111,4317,99
23,-0.0111502241343,4318,99
24,-0.0111704086885,4319,99
25,-0.0112296082079,4320,99
26,-0.0112488903105,4321,99
27,-0.0113053796813,4322,99
28,-0.011323755607,4323,99
29,-0.0113419052213,4324,99
30,-0.0113949906081,4325,99
31,-0.0114292446524,4326,99
32,-0.0114625878632,4327,99
33,-0.0114789176732,4328,99
34,-0.0115108946338,4329,99
35,-0.0115571543574,4330,99
36,-0.011586856097,4331,99
37,-0.0116156488657,4332,99
38,-0.0116435354576,4333,99
39,-0.0116705168039,4334,99
40,-0.0116965938359,4335,99
41,-0.0117092942819,4336,99
42,-0.011746047996,4337,99
43,-0.011757850647,4338,99
44,-0.0117807844654,4339,99
45,-0.0118028288707,4340,99
46,-0.0118239857256,4341,99
47,-0.0118342330679,4342,99
48,-0.0118540665135,4343,99
49,-0.0118821747601,4344,99
50,-0.0118998261169,4345,99
51,-0.0119166132063,4346,99
52,-0.0119325416163,4347,99
53,-0.0119476160035,4348,99
54,-0.0119618438184,4349,99
55,-0.0119752315804,4350,99
56,-0.0119877839461,4351,99
57,-0.0119995092973,4352,99
58,-0.0120050627738,4353,99
59,-0.0120155597106,4354,99
60,-0.0120252463967,4355,99
61,-0.0120297884569,4356,99
62,-0.0120422188193,4357,99
63,-0.0120495213196,4358,99
64,-0.0120528796688,4359,99
65,-0.0120617970824,4360,99
66,-0.0120667880401,4361,99
67,-0.0120710255578,4362,99
68,-0.0120745170861,4363,99
69,-0.0120772719383,4364,99
70,-0.0120793003589,4365,99
71,-0.0120806097984,4366,99
72,-0.0120809981599,4367,99
73,-0.0120812458917,4368,99
74,-0.0120807988569,4369,99
75,-0.0120796635747,4370,99
76,-0.012077851221,4371,99
77,-0.0120753701776,4372,99
78,-0.0120738819242,4373,99
79,-0.0120684411377,4374,99
80,-0.012066305615,4375,99
81,-0.0120589481667,4376,99
82,-0.0120561830699,4377,99
83,-0.0120469639078,4378,99
84,-0.0120400618762,4379,99
85,-0.0120325637981,4380,99
86,-0.0120244789869,4381,99
87,-0.0120158158243,4382,99
88,-0.0120065826923,4383,99
89,-0.0120017556474,4384,99
90,-0.0119967898354,4385,99
91,-0.0119864447042,4386,99
92,-0.0119755556807,4387,99
93,-0.011964132078,4388,99
94,-0.011946009472,4389,99
95,-0.0119397090748,4390,99
96,-0.0119200469926,4391,99
97,-0.0119063127786,4392,99
98,-0.0118920868263,4393,99
99,-0.0118773756549,4394,99
100,-0.0118698393926,4395,99
101,-0.0118465255946,4396,99
102,-0.0118385218084,4397,99
103,-0.0118138222024,4398,99
104,-0.0118053620681,4399,99
105,-0.0117881083861,4400,99
106,-0.0117704141885,4401,99
107,-0.0117522859946,4402,99
108,-0.011733728461,4403,99
109,-0.0117147499695,4404,99
110,-0.0117051042616,4405,99
111,-0.0116755487397,4406,99
112,-0.0116654932499,4407,99
113,-0.0116450823843,4408,99
114,-0.0116137247533,4409,99
115,-0.011592333205,4410,99
116,-0.0115705607459,4411,99
117,-0.0115484101698,4412,99
118,-0.011525887996,4413,99
119,-0.0115144886076,4414,99
120,-0.0114914188161,4415,99
121,-0.0114679895341,4416,99
122,-0.0114442072809,4417,99
123,-0.0114200776443,4418,99
124,-0.0113956043497,4419,99
125,-0.0113832419738,4420,99
126,-0.0113456537947,4421,99
127,-0.0113201867789,4422,99
128,-0.0112943984568,4423,99
129,-0.0112682953477,4424,99
130,-0.0112551273778,4425,99
131,-0.011228563264,4426,99
132,-0.0112017001957,4427,99
133,-0.0111608570442,4428,99
134,-0.0111471004784,4429,99
135,-0.0111332731321,4430,99
136,-0.0110913794488,4431,99
137,-0.01106311474,4432,99
138,-0.0110488859937,4433,99
139,-0.0110058188438,4434,99
140,-0.0109768025577,4435,99
141,-0.0109475497156,4436,99
142,-0.0109328385442,4437,99
143,-0.0108883744106,4438,99
144,-0.0108584687114,4439,99
145,-0.0108283646405,4440,99
146,-0.0107980696484,4441,99
147,-0.0107675958425,4442,99
148,-0.0107522960752,4443,99
149,-0.0107215754688,4444,99
150,-0.0106907011941,4445,99
151,-0.0106752105057,4446,99
152,-0.0106285456568,4447,99
153,-0.0106129311025,4448,99
154,-0.0105816200376,4449,99
155,-0.0105344764888,4450,99
156,-0.010502949357,4451,99
157,-0.0104713598266,4452,99
158,-0.0104397227988,4453,99
159,-0.0104080531746,4454,99
160,-0.0103922113776,4455,99
161,-0.0103446776047,4456,99
162,-0.0103288376704,4457,99
163,-0.0102813597769,4458,99
164,-0.0102655552328,4459,99
165,-0.0102339899167,4460,99
166,-0.0102182338014,4461,99
167,-0.0101867867634,4462,99
168,-0.0101398108527,4463,99
169,-0.0101086515933,4464,99
170,-0.0100776404142,4465,99
171,-0.0100467968732,4466,99
172,-0.010016140528,4467,99
173,-0.0100008891895,4468,99
174,-0.0100236423314,4556,99
175,-0.0100632086396,4557,99
176,-0.0100832367316,4558,99
177,-0.0101442653686,4559,99
178,-0.0101857101545,4560,99
179,-0.0102277332917,4561,99
180,-0.0102703133598,4562,99
181,-0.0103134242818,4563,99
182,-0.0103570427746,4564,99
183,-0.0103790350258,4565,99
184,-0.0104011446238,4566,99
185,-0.0104681467637,4567,99
186,-0.0105133457109,4568,99
187,-0.0105360951275,4569,99
188,-0.0105818780139,4570,99
189,-0.0106280175969,4571,99
190,-0.0106978435069,4572,99
191,-0.0107447691262,4573,99
192,-0.0107919638976,4574,99
193,-0.0108156558126,4575,99
194,-0.0108870668337,4576,99
195,-0.0109349247068,4577,99
196,-0.010982953012,4578,99
197,-0.0110311284661,4579,99
198,-0.0110794268548,4580,99
199,-0.0111036133021,4581,99
200,-0.0111278221011,4582,99
201,-0.0112005500123,4583,99
202,-0.011224815622,4584,99
203,-0.0112976431847,4585,99
204,-0.0113461902365,4586,99
205,-0.0113704539835,4587,99
206,-0.0114431725815,4588,99
207,-0.0114673785865,4589,99
208,-0.0115398587659,4590,99
209,-0.0115880360827,4591,99
210,-0.0116360746324,4592,99
211,-0.0116839529946,4593,99
212,-0.0117316525429,4594,99
213,-0.0117791518569,4595,99
214,-0.0118028204888,4596,99
215,-0.01182643231,4597,99
216,-0.0118968971074,4598,99
217,-0.0119435433298,4599,99
218,-0.0119899036363,4600,99
219,-0.0120359603316,4601,99
220,-0.0120816957206,4602,99
221,-0.0121044376865,4603,99
222,-0.0121721336618,4604,99
223,-0.0121945161372,4605,99
224,-0.0122389923781,4606,99
225,-0.0122830728069,4607,99
226,-0.0123267415911,4608,99
227,-0.0123699838296,4609,99
228,-0.0124340150505,4610,99
229,-0.0124551290646,4611,99
230,-0.0124970041215,4612,99
231,-0.012538395822,4613,99
232,-0.012579289265,4614,99
233,-0.0126196723431,4615,99
234,-0.0126396678388,4616,99
235,-0.012698858045,4617,99
236,-0.0127376364544,4618,99
237,-0.0127758560702,4619,99
238,-0.0128135047853,4620,99
239,-0.0128505714238,4621,99
240,-0.0128870457411,4622,99
241,-0.0129229165614,4623,99
242,-0.0129581745714,4624,99
243,-0.0129928095266,4625,99
244,-0.0130098899826,4626,99
245,-0.0130435721949,4627,99
246,-0.0130766071379,4628,99
247,-0.0131089854985,4629,99
248,-0.0131249260157,4630,99
249,-0.0131563050672,4631,99
250,-0.0132020981982,4632,99
251,-0.0132317654788,4633,99
252,-0.0132607351989,4634,99
253,-0.0132749546319,4635,99
254,-0.0133028607816,4636,99
255,-0.0133433714509,4637,99
256,-0.0133565114811,4638,99
257,-0.0133948316798,4639,99
258,-0.0134194502607,4640,99
259,-0.0134314792231,4641,99
260,-0.0134433200583,4642,99
261,-0.0134777054191,4643,99
262,-0.0134887853637,4644,99
263,-0.0135208684951,4645,99
264,-0.0135412858799,4646,99
265,-0.0135609190911,4647,99
266,-0.0135797625408,4648,99
267,-0.0135978097096,4649,99
268,-0.0136150568724,4650,99
269,-0.0136233791709,4651,99
270,-0.0136471297592,4652,99
271,-0.0136619443074,4653,99
272,-0.0136759374291,4654,99
273,-0.0136891063303,4655,99
274,-0.0136953787878,4656,99
275,-0.0137014444917,4657,99
276,-0.0137129481882,4658,99
277,-0.013728630729,4659,99
278,-0.0137380324304,4660,99
279,-0.0137424161658,4661,99
280,-0.013754288666,4662,99
281,-0.0137611366808,4663,99
282,-0.0137671269476,4664,99
283,-0.0137722576037,4665,99
284,-0.0137765249237,4666,99
285,-0.0137799261138,4667,99
286,-0.0137824621052,4668,99
287,-0.0137841273099,4669,99
288,-0.0137849217281,4670,99
289,-0.0137849925086,4671,99
290,-0.0137844793499,4672,99
291,-0.0137830926105,4673,99
292,-0.0137820709497,4674,99
293,-0.0137793719769,4675,99
294,-0.0137736834586,4676,99
295,-0.0137713495642,4677,99
296,-0.0137660270557,4678,99
297,-0.0137564064935,4679,99
298,-0.0137489018962,4680,99
299,-0.0137448236346,4681,99
300,-0.0137360142544,4682,99
301,-0.0137263378128,4683,99
302,-0.0137102017179,4684,99
303,-0.0136983683333,4685,99
304,-0.0136921303347,4686,99
305,-0.0136856781319,4687,99
306,-0.013672134839,4688,99
307,-0.0136502282694,4689,99
308,-0.013634569943,4690,99
309,-0.0136180752888,4691,99
310,-0.013609515503,4692,99
311,-0.013582598418,4693,99
312,-0.0135636283085,4694,99
313,-0.0135438460857,4695,99
314,-0.0135336527601,4696,99
315,-0.0135018732399,4697,99
316,-0.0134908845648,4698,99
317,-0.0134567450732,4699,99
318,-0.0134330186993,4700,99
319,-0.0134208695963,4701,99
320,-0.0133960042149,4702,99
321,-0.0133703909814,4703,99
322,-0.0133573068306,4704,99
323,-0.0133169637993,4705,99
324,-0.0132891722023,4706,99
325,-0.0132750123739,4707,99
326,-0.0132314907387,4708,99
327,-0.0132016260177,4709,99
328,-0.0131864426658,4710,99
329,-0.0131555832922,4711,99
330,-0.0131080867723,4712,99
331,-0.0130756376311,4713,99
332,-0.0130425775424,4714,99
333,-0.0130089204758,4715,99
334,-0.0129746813327,4716,99
335,-0.0129573484883,4717,99
336,-0.0129222655669,4718,99
337,-0.0128866396844,4719,99
338,-0.0128504857421,4720,99
339,-0.0128322169185,4721,99
340,-0.0127766616642,4722,99
341,-0.012739024125,4723,99
342,-0.0127009246498,4724,99
343,-0.0126623809338,4725,99
344,-0.0126234097406,4726,99
345,-0.0125840278342,4727,99
346,-0.012544253841,4728,99
347,-0.0125242257491,4729,99
348,-0.0124635985121,4730,99
349,-0.0124432165176,4731,99
350,-0.0124022066593,4732,99
351,-0.0123815834522,4733,99
352,-0.0123192667961,4734,99
353,-0.0122773721814,4735,99
354,-0.0122352177277,4736,99
355,-0.0121928211302,4737,99
356,-0.0121502010152,4738,99
357,-0.0121073750779,4739,99
358,-0.0120643610135,4740,99
359,-0.0120211755857,4741,99
360,-0.0119995232671,4742,99
361,-0.011956111528,4743,99
362,-0.0118907568976,4744,99
363,-0.0118470545858,4745,99
364,-0.0118032647297,4746,99
365,-0.0117813423276,4747,99
366,-0.0117374518886,4748,99
367,-0.0116935130209,4749,99
368,-0.0116495424882,4750,99
369,-0.0116055551916,4751,99
370,-0.0115615641698,4752,99
371,-0.0115395728499,4753,99
372,-0.0114736333489,4754,99
373,-0.0114297196269,4755,99
374,-0.0114077813923,4756,99
375,-0.0113420644775,4757,99
376,-0.0112983472645,4758,99
377,-0.0112547185272,4759,99
378,-0.0112111903727,4760,99
379,-0.0111677749082,4761,99
380,-0.0111461114138,4762,99
381,-0.0111028822139,4763,99
382,-0.0110597899184,4764,99
383,-0.0110168429092,4765,99
384,-0.0109740504995,4766,99
385,-0.01093142014,4767,99
386,-0.0109101682901,4768,99
387,-0.0108466753736,4769,99
388,-0.0108045749366,4770,99
389,-0.0107626626268,4771,99
390,-0.0107209449634,4772,99
391,-0.0106794256717,4773,99
392,-0.0106381094083,4774,99
393,-0.0105970008299,4775,99
394,-0.0105561008677,4776,99
395,-0.010535730049,4777,99
396,-0.0104951485991,4778,99
397,-0.0104547813535,4779,99
398,-0.0104146301746,4780,99
399,-0.0103746950626,4781,99
400,-0.0103349760175,4782,99
401,-0.0102954739705,4783,99
402,-0.010256187059,4784,99
403,-0.010236623697,4785,99
404,-0.0101782502607,4786,99
405,-0.0101588973776,4787,99
406,-0.0101011507213,4788,99
407,-0.0100820036605,4789,99
408,-0.0100248614326,4790,99
409,-0.0100059127435,4791,99
410,0.0100090783089,3491,99
411,0.0100286770612,3492,99
412,0.0100476397201,3493,99
413,0.0100568821654,3494,99
414,0.0100836511701,3495,99
415,0.0101006980985,3496,99
416,0.0101089812815,3497,99
417,0.0101250680164,3498,99
418,0.0101405130699,3499,99
419,0.0101624727249,3500,99
420,0.0101763093844,3501,99
421,0.010189499706,3502,99
422,0.0102020446211,3503,99
423,0.0102139441296,3504,99
424,0.010225199163,3505,99
425,0.0102305840701,3506,99
426,0.0102408695966,3507,99
427,0.0102505069226,3508,99
428,0.0102594979107,3509,99
429,0.0102678406984,3510,99
430,0.0102755352855,3511,99
431,0.0102825835347,3512,99
432,0.0102889854461,3513,99
433,0.0102947400883,3514,99
434,0.0102973747998,3515,99
435,0.0103021599352,3516,99
436,0.010308126919,3517,99
437,0.0103097930551,3518,99
438,0.0103138247505,3519,99
439,0.0103148464113,3520,99
440,0.0103169474751,3521,99
441,0.0103173265234,3522,99
442,0.0103176031262,3523,99
443,0.0103172399104,3524,99
444,0.0103168180212,3525,99
445,0.0103145949543,3526,99
446,0.0103135351092,3527,99
447,0.0103109395131,3528,99
448,0.0103058554232,3529,99
449,0.0103038446978,3530,99
450,0.0102968644351,3531,99
451,0.0102914255112,3532,99
452,0.0102884704247,3533,99
453,0.010278666392,3534,99
454,0.0102713508531,3535,99
455,0.0102674607188,3536,99
456,0.0102592166513,3537,99
457,0.010250355117,3538,99
458,0.0102408789098,3539,99
459,0.0102307908237,3540,99
460,0.01022009179,3541,99
461,0.0102087864652,3542,99
462,0.0101968767121,3543,99
463,0.010184366256,3544,99
464,0.0101778870448,3545,99
465,0.0101575553417,3546,99
466,0.0101432604715,3547,99
467,0.0101283779368,3548,99
468,0.0101129114628,3549,99
469,0.0101049598306,3550,99
470,0.0100802369416,3551,99
471,0.0100717078894,3552,99
472,0.0100542223081,3553,99
473,0.0100361676887,3554,99
474,0.0100175477564,3555,99
475,0.0100080277771,3556,99
0,-0.0100188245997,4330,100
1,-0.0100368140265,4331,100
2,-0.0100725116208,4332,100
3,-0.0101253474131,4333,100
4,-0.010160099715,4334,100
5,-0.0101944785565,4335,100
6,-0.0102284783497,4336,100
7,-0.0102621009573,4337,100
8,-0.0102787697688,4338,100
9,-0.0103118224069,4339,100
10,-0.0103444950655,4340,100
11,-0.0103606879711,4341,100
12,-0.0104086846113,4342,100
13,-0.0104244891554,4343,100
14,-0.0104713141918,4344,100
15,-0.0105020320043,4345,100
16,-0.0105323502794,4346,100
17,-0.0105473548174,4347,100
18,-0.0105917518958,4348,100
19,-0.0106063419953,4349,100
20,-0.0106494771317,4350,100
21,-0.010677694343,4351,100
22,-0.0106916371733,4352,100
23,-0.0107327988371,4353,100
24,-0.0107462927699,4354,100
25,-0.0107596712187,4355,100
26,-0.010786077939,4356,100
27,-0.0108247995377,4357,100
28,-0.0108500057831,4358,100
29,-0.0108624221757,4359,100
30,-0.0108868787065,4360,100
31,-0.0109108248726,4361,100
32,-0.0109457597136,4362,100
33,-0.0109571367502,4363,100
34,-0.0109904492274,4364,100
35,-0.0110012758523,4365,100
36,-0.0110329026356,4366,100
37,-0.0110532613471,4367,100
38,-0.0110730296001,4368,100
39,-0.0110826874152,4369,100
40,-0.011101545766,4370,100
41,-0.0111197829247,4371,100
42,-0.011128667742,4372,100
43,-0.0111543573439,4373,100
44,-0.0111706722528,4374,100
45,-0.0111863249913,4375,100
46,-0.0112013062462,4376,100
47,-0.0112156048417,4377,100
48,-0.0112292114645,4378,100
49,-0.0112421195954,4379,100
50,-0.0112543171272,4380,100
51,-0.0112657984719,4381,100
52,-0.0112765552476,4382,100
53,-0.0112865800038,4383,100
54,-0.0112913157791,4384,100
55,-0.0112958671525,4385,100
56,-0.0113083980978,4386,100
57,-0.0113158123568,4387,100
58,-0.0113224694505,4388,100
59,-0.0113255130127,4389,100
60,-0.0113334972411,4390,100
61,-0.0113357761875,4391,100
62,-0.0113414600492,4392,100
63,-0.0113442884758,4393,100
64,-0.0113454153761,4394,100
65,-0.0113476403058,4395,100
66,-0.011348166503,4396,100
67,-0.0113479290158,4397,100
68,-0.011346930638,4398,100
69,-0.011346148327,4399,100
70,-0.0113451769575,4400,100
71,-0.0113411415368,4401,100
72,-0.0113375233486,4402,100
73,-0.0113331712782,4403,100
74,-0.0113280946389,4404,100
75,-0.011325288564,4405,100
76,-0.0113191427663,4406,100
77,-0.0113086160272,4407,100
78,-0.0113007435575,4408,100
79,-0.0112922033295,4409,100
80,-0.011287686415,4410,100
81,-0.0112731745467,4411,100
82,-0.0112627157941,4412,100
83,-0.0112572582439,4413,100
84,-0.0112458970398,4414,100
85,-0.0112339556217,4415,100
86,-0.0112214526162,4416,100
87,-0.0112084075809,4417,100
88,-0.0111948410049,4418,100
89,-0.0111807733774,4419,100
90,-0.0111735584214,4420,100
91,-0.0111587801948,4421,100
92,-0.0111435549334,4422,100
93,-0.0111199365929,4423,100
94,-0.0111037017778,4424,100
95,-0.0110871037468,4425,100
96,-0.0110786780715,4426,100
97,-0.0110615855083,4427,100
98,-0.0110353957862,4428,100
99,-0.0110265314579,4429,100
100,-0.0110176056623,4430,100
101,-0.0109904967248,4431,100
102,-0.0109813595191,4432,100
103,-0.010962953791,4433,100
104,-0.0109443962574,4434,100
105,-0.0109163373709,4435,100
106,-0.0108975209296,4436,100
107,-0.0108786467463,4437,100
108,-0.0108597446233,4438,100
109,-0.0108408406377,4439,100
110,-0.0108219599351,4440,100
111,-0.010803132318,4441,100
112,-0.0107843810692,4442,100
113,-0.0107657331973,4443,100
114,-0.0107564581558,4444,100
115,-0.0107472175732,4445,100
116,-0.0107197407633,4446,100
117,-0.0107106734067,4447,100
118,-0.0106837898493,4448,100
119,-0.0106661636382,4449,100
120,-0.0106487991288,4450,100
121,-0.0106317196041,4451,100
122,-0.0106149474159,4452,100
123,-0.0105985021219,4453,100
124,-0.0105904089287,4454,100
