,amplitude,tstep,vfp
0,-0.0100241713226,4118,98
1,-0.0100592738017,4119,98
2,-0.0100939236581,4120,98
3,-0.0101110804826,4121,98
4,-0.0101618831977,4122,98
5,-0.0101952021942,4123,98
6,-0.0102116977796,4124,98
7,-0.0102605456486,4125,98
8,-0.010276616551,4126,98
9,-0.0103084482253,4127,98
10,-0.0103398729116,4128,98
11,-0.0103708952665,4129,98
12,-0.0103862602264,4130,98
13,-0.0104317776859,4131,98
14,-0.0104616535828,4132,98
15,-0.0104911671951,4133,98
16,-0.0105057917535,4134,98
17,-0.0105347791687,4135,98
18,-0.0105634303764,4136,98
19,-0.0106057962403,4137,98
20,-0.0106336474419,4138,98
21,-0.0106474608183,4139,98
22,-0.010688457638,4140,98
23,-0.0107154343277,4141,98
24,-0.0107288202271,4142,98
25,-0.0107421390712,4143,98
26,-0.0107685839757,4144,98
27,-0.0108077805489,4145,98
28,-0.0108336126432,4146,98
29,-0.0108592137694,4147,98
30,-0.0108719291165,4148,98
31,-0.0109097575769,4149,98
32,-0.0109347151592,4150,98
33,-0.0109594697133,4151,98
34,-0.0109840305522,4152,98
35,-0.0110084041953,4153,98
36,-0.0110325925052,4154,98
37,-0.0110446186736,4155,98
38,-0.0110804317519,4156,98
39,-0.0110922800377,4157,98
40,-0.0111040873453,4158,98
41,-0.0111275715753,4159,98
42,-0.0111624784768,4160,98
43,-0.0111740287393,4161,98
44,-0.0112084290013,4162,98
45,-0.0112198088318,4163,98
46,-0.0112424427643,4164,98
47,-0.0112760653719,4165,98
48,-0.0112982597202,4166,98
49,-0.0113092875108,4167,98
50,-0.0113420952111,4168,98
51,-0.0113637289032,4169,98
52,-0.011385162361,4170,98
53,-0.0114063927904,4171,98
54,-0.0114169288427,4172,98
55,-0.0114274099469,4173,98
56,-0.0114585235715,4174,98
57,-0.0114687783644,4175,98
58,-0.0114891100675,4176,98
59,-0.0115191442892,4177,98
60,-0.011529026553,4178,98
61,-0.0115582663566,4179,98
62,-0.0115774059668,4180,98
63,-0.0115962512791,4181,98
64,-0.0116147911176,4182,98
65,-0.0116330115125,4183,98
66,-0.0116419969127,4184,98
67,-0.0116684446111,4185,98
68,-0.0116856340319,4186,98
69,-0.0116940895095,4187,98
70,-0.0117107182741,4188,98
71,-0.0117188869044,4189,98
72,-0.0117427911609,4190,98
73,-0.0117505546659,4191,98
74,-0.0117731997743,4192,98
75,-0.0117877470329,4193,98
76,-0.0118018388748,4194,98
77,-0.0118087083101,4195,98
78,-0.011828600429,4196,98
79,-0.0118349855766,4197,98
80,-0.0118473786861,4198,98
81,-0.0118650039658,4199,98
82,-0.0118760922924,4200,98
83,-0.0118866376579,4201,98
84,-0.0118917031214,4202,98
85,-0.0118966298178,4203,98
86,-0.0119060557336,4204,98
87,-0.0119191147387,4205,98
88,-0.011927084066,4206,98
89,-0.0119308456779,4207,98
90,-0.0119412187487,4208,98
91,-0.011947366409,4209,98
92,-0.0119528900832,4210,98
93,-0.011957783252,4211,98
94,-0.0119620393962,4212,98
95,-0.0119656519964,4213,98
96,-0.0119686182588,4214,98
97,-0.0119709316641,4215,98
98,-0.011972588487,4216,98
99,-0.0119731696323,4217,98
100,-0.0119735850021,4218,98
101,-0.0119738392532,4219,98
102,-0.0119735915214,4220,98
103,-0.0119718527421,4221,98
104,-0.0119698597118,4222,98
105,-0.0119672045112,4223,98
106,-0.0119638852775,4224,98
107,-0.0119599057361,4225,98
108,-0.0119552668184,4226,98
109,-0.0119499741122,4227,98
110,-0.0119440304115,4228,98
111,-0.011940815486,4229,98
112,-0.0119302105159,4230,98
113,-0.011922349222,4231,98
114,-0.0119181815535,4232,98
115,-0.0119093814865,4233,98
116,-0.0119047500193,4234,98
117,-0.0118950298056,4235,98
118,-0.0118793239817,4236,98
119,-0.0118737928569,4237,98
120,-0.0118622947484,4238,98
121,-0.0118502229452,4239,98
122,-0.0118310712278,4240,98
123,-0.0118176201358,4241,98
124,-0.01180363819,4242,98
125,-0.0117891384289,4243,98
126,-0.0117741348222,4244,98
127,-0.0117586376145,4245,98
128,-0.0117426635697,4246,98
129,-0.0117345042527,4247,98
130,-0.0117178400978,4248,98
131,-0.0117007372901,4249,98
132,-0.0116832060739,4250,98
133,-0.0116652660072,4251,98
134,-0.0116469301283,4252,98
135,-0.0116282170638,4253,98
136,-0.0116091379896,4254,98
137,-0.0115897106007,4255,98
138,-0.0115798711777,4256,98
139,-0.0115498742089,4257,98
140,-0.0115294968709,4258,98
141,-0.0115088345483,4259,98
142,-0.0114879030734,4260,98
143,-0.0114667173475,4261,98
144,-0.0114560350776,4262,98
145,-0.0114344954491,4263,98
146,-0.0114236455411,4264,98
147,-0.0113907875493,4265,98
148,-0.0113686434925,4266,98
149,-0.0113463271409,4267,98
150,-0.0113238515332,4268,98
151,-0.0113012287766,4269,98
152,-0.0112784719095,4270,98
153,-0.0112555949017,4271,98
154,-0.0112441154197,4272,98
155,-0.0112210763618,4273,98
156,-0.0111979460344,4274,98
157,-0.0111630978063,4275,98
158,-0.0111514469609,4276,98
159,-0.0111163994297,4277,98
160,-0.0111046908423,4278,98
161,-0.0110812373459,4279,98
162,-0.0110694952309,4280,98
163,-0.0110342148691,4281,98
164,-0.0110106589273,4282,98
165,-0.0109988721088,4283,98
166,-0.0109634818509,4284,98
167,-0.0109516754746,4285,98
168,-0.0109162386507,4286,98
169,-0.0108926007524,4287,98
170,-0.0108689526096,4288,98
171,-0.0108452960849,4289,98
172,-0.0108216293156,4290,98
173,-0.0107979550958,4291,98
174,-0.0107742678374,4292,98
175,-0.0107624195516,4293,98
176,-0.0107387090102,4294,98
177,-0.0107149807736,4295,98
178,-0.0106912311167,4296,98
179,-0.0106793474406,4297,98
180,-0.0106555549428,4298,98
181,-0.0106198005378,4299,98
182,-0.0105959121138,4300,98
183,-0.0105719743297,4301,98
184,-0.0105479788035,4302,98
185,-0.0105239199474,4303,98
186,-0.0104997884482,4304,98
187,-0.0104755759239,4305,98
188,-0.0104634370655,4306,98
189,-0.0104390894994,4307,98
190,-0.0104146404192,4308,98
191,-0.0103900823742,4309,98
192,-0.0103654041886,4310,98
193,-0.0103406002745,4311,98
194,-0.010315656662,4312,98
195,-0.010303132236,4313,98
196,-0.0102779688314,4314,98
197,-0.0102399233729,4315,98
198,-0.0102271586657,4316,98
199,-0.0101885972545,4317,98
200,-0.0101626571268,4318,98
201,-0.0101365242153,4319,98
202,-0.0101233841851,4320,98
203,-0.0100836539641,4321,98
204,-0.0100569026545,4322,98
205,-0.0100434478372,4323,98
206,-0.0100163696334,4324,98
207,-0.0100027481094,4325,98
0,-0.0100185228512,4104,99
1,-0.0100553231314,4105,99
2,-0.0100921578705,4106,99
3,-0.0101105915383,4107,99
4,-0.0101474970579,4108,99
5,-0.0102029712871,4109,99
6,-0.0102400435135,4110,99
7,-0.0102586103603,4111,99
8,-0.0102958092466,4112,99
9,-0.0103331012651,4113,99
10,-0.0103704957291,4114,99
11,-0.0104079991579,4115,99
12,-0.0104267932475,4116,99
13,-0.0104833524674,4117,99
14,-0.0105212144554,4118,99
15,-0.0105592040345,4119,99
16,-0.0105973249301,4120,99
17,-0.0106355799362,4121,99
18,-0.010654758662,4122,99
19,-0.0106932194903,4123,99
20,-0.0107511701062,4124,99
21,-0.0107899773866,4125,99
22,-0.0108094327152,4126,99
23,-0.0108484467492,4127,99
24,-0.0108875958249,4128,99
25,-0.0109268780798,4129,99
26,-0.0109662897885,4130,99
27,-0.0110058272257,4131,99
28,-0.0110256420448,4132,99
29,-0.0110852615908,4133,99
30,-0.0111251473427,4134,99
31,-0.0111651364714,4135,99
32,-0.0112052215263,4136,99
33,-0.0112453941256,4137,99
34,-0.0112856468186,4138,99
35,-0.0113259684294,4139,99
36,-0.011366349645,4140,99
37,-0.0114067802206,4141,99
38,-0.0114270104095,4142,99
39,-0.0114472489804,4143,99
40,-0.011507996358,4144,99
41,-0.0115282507613,4145,99
42,-0.0115687586367,4146,99
43,-0.0116294892505,4147,99
44,-0.0116497185081,4148,99
45,-0.0116901425645,4149,99
46,-0.0117305079475,4150,99
47,-0.0117708006874,4151,99
48,-0.0118110040203,4152,99
49,-0.0118711013347,4153,99
50,-0.0118910707533,4154,99
51,-0.0119507573545,4155,99
52,-0.0119903422892,4156,99
53,-0.0120100658387,4157,99
54,-0.0120297400281,4158,99
55,-0.0120689319447,4159,99
56,-0.0121272923425,4160,99
57,-0.0121658854187,4161,99
58,-0.0122042056173,4162,99
59,-0.0122232567519,4163,99
60,-0.012279946357,4164,99
61,-0.0123173249885,4165,99
62,-0.0123358825222,4166,99
63,-0.0123910009861,4167,99
64,-0.0124272573739,4168,99
65,-0.0124452309683,4169,99
66,-0.0124985035509,4170,99
67,-0.0125334523618,4171,99
68,-0.012550749816,4172,99
69,-0.0125849759206,4173,99
70,-0.0126186963171,4174,99
71,-0.0126518886536,4175,99
72,-0.0126845343038,4176,99
73,-0.0127166137099,4177,99
74,-0.0127481073141,4178,99
75,-0.0127789946273,4179,99
76,-0.0127942049876,4180,99
77,-0.0128388758749,4181,99
78,-0.0128678334877,4182,99
79,-0.0128820585087,4183,99
80,-0.0129236923531,4184,99
81,-0.0129372160882,4185,99
82,-0.012963719666,4186,99
83,-0.0129894819111,4187,99
84,-0.0130144888535,4188,99
85,-0.0130387246609,4189,99
86,-0.0130621725693,4190,99
87,-0.0130848195404,4191,99
88,-0.0130958370864,4192,99
89,-0.0131172547117,4193,99
90,-0.0131478114054,4194,99
91,-0.013167116791,4195,99
92,-0.0131855551153,4196,99
93,-0.0132031170651,4197,99
94,-0.0132197914645,4198,99
95,-0.0132277915254,4199,99
96,-0.0132504366338,4200,99
97,-0.0132643887773,4201,99
98,-0.013271019794,4202,99
99,-0.0132835842669,4203,99
100,-0.0132895167917,4204,99
101,-0.0133006786928,4205,99
102,-0.0133156534284,4206,99
103,-0.0133244488388,4207,99
104,-0.0133322896436,4208,99
105,-0.0133391730487,4209,99
106,-0.013345098123,4210,99
107,-0.0133500602096,4211,99
108,-0.0133540593088,4212,99
109,-0.0133556975052,4213,99
110,-0.013358252123,4214,99
111,-0.0133602786809,4215,99
112,-0.0133604742587,4216,99
113,-0.0133601464331,4217,99
114,-0.013358861208,4218,99
115,-0.0133566241711,4219,99
116,-0.0133534381166,4220,99
117,-0.013349307701,4221,99
118,-0.0133442394435,4222,99
119,-0.0133382389322,4223,99
120,-0.0133313126862,4224,99
121,-0.0133275054395,4225,99
122,-0.0133147155866,4226,99
123,-0.0133050614968,4227,99
124,-0.0132998982444,4228,99
125,-0.0132889086381,4229,99
126,-0.0132770417258,4230,99
127,-0.0132576199248,4231,99
128,-0.0132436072454,4232,99
129,-0.0132362861186,4233,99
130,-0.0132287573069,4234,99
131,-0.0132049378008,4235,99
132,-0.0131880473346,4236,99
133,-0.0131703643128,4237,99
134,-0.0131519027054,4238,99
135,-0.0131326774135,4239,99
136,-0.0131227821112,4240,99
137,-0.0131024364382,4241,99
138,-0.0130705591291,4242,99
139,-0.0130484262481,4243,99
140,-0.0130371004343,4244,99
141,-0.0130021106452,4245,99
142,-0.0129779614508,4246,99
143,-0.0129531752318,4247,99
144,-0.0129405483603,4248,99
145,-0.0129277678207,4249,99
146,-0.012888526544,4250,99
147,-0.0128616401926,4251,99
148,-0.012847985141,4252,99
149,-0.012806202285,4253,99
150,-0.012792008929,4254,99
151,-0.012748664245,4255,99
152,-0.0127339679748,4256,99
153,-0.0127042178065,4257,99
154,-0.0126587320119,4258,99
155,-0.0126278586686,4259,99
156,-0.0126122646034,4260,99
157,-0.0125807719305,4261,99
158,-0.0125328069553,4262,99
159,-0.0125166336074,4263,99
160,-0.0124840224162,4264,99
161,-0.0124675892293,4265,99
162,-0.0124178081751,4266,99
163,-0.0123842386529,4267,99
164,-0.0123503850773,4268,99
165,-0.0123162642121,4269,99
166,-0.0122991092503,4270,99
167,-0.0122472913936,4271,99
168,-0.0122124729678,4272,99
169,-0.0121774561703,4273,99
170,-0.0121422568336,4274,99
171,-0.0121068907902,4275,99
172,-0.0120713738725,4276,99
173,-0.0120357228443,4277,99
174,-0.0120178516954,4278,99
175,-0.0119820283726,4279,99
176,-0.0119640799239,4280,99
177,-0.0119101107121,4281,99
178,-0.0118740461767,4282,99
179,-0.0118379313499,4283,99
180,-0.0118017792702,4284,99
181,-0.0117656067014,4285,99
182,-0.0117294257507,4286,99
183,-0.011711335741,4287,99
184,-0.0116570927203,4288,99
185,-0.0116209685802,4289,99
186,-0.0115848891437,4290,99
187,-0.0115668708459,4291,99
188,-0.0115308836102,4292,99
189,-0.0114949727431,4293,99
190,-0.0114591503516,4294,99
191,-0.0114234294742,4295,99
192,-0.0114056104794,4296,99
193,-0.0113523360342,4297,99
194,-0.0113169848919,4298,99
195,-0.0112817790359,4299,99
196,-0.0112642338499,4300,99
197,-0.0112292654812,4301,99
198,-0.0111771384254,4302,99
199,-0.0111426180229,4303,99
200,-0.0111254304647,4304,99
201,-0.0110741760582,4305,99
202,-0.0110571971163,4306,99
203,-0.0110065937042,4307,99
204,-0.0109898410738,4308,99
205,-0.0109565155581,4309,99
206,-0.0109234359115,4310,99
207,-0.0109069906175,4311,99
208,-0.0108580477536,4312,99
209,-0.0108257550746,4313,99
210,-0.0107937417924,4314,99
211,-0.0107620144263,4315,99
212,-0.0107305804268,4316,99
213,-0.0106994472444,4317,99
214,-0.0106686232612,4318,99
215,-0.0106533290818,4319,99
216,-0.0106079280376,4320,99
217,-0.0105929570273,4321,99
218,-0.0105485478416,4322,99
219,-0.0105339149013,4323,99
220,-0.0105049097911,4324,99
221,-0.0104762557894,4325,99
222,-0.010462061502,4326,99
223,-0.0104200234637,4327,99
224,-0.0103924581781,4328,99
225,-0.0103652691469,4329,99
226,-0.0103384600952,4330,99
227,-0.0103120375425,4331,99
228,-0.0102860052139,4332,99
229,-0.0102731380612,4333,99
230,-0.0102477036417,4334,99
231,-0.0102103110403,4335,99
232,-0.0101980520412,4336,99
233,-0.0101618980989,4337,99
234,-0.0101383188739,4338,99
235,-0.0101266885176,4339,99
236,-0.0101037491113,4340,99
237,-0.0100812418386,4341,99
238,-0.0100701516494,4342,99
239,-0.0100375385955,4343,99
240,-0.0100163500756,4344,99
241,-0.0100059239194,4345,99
242,0.0108827734366,5328,99
243,0.0110051836818,5329,99
244,0.0111272651702,5330,99
245,-0.0100141437724,4440,99
246,-0.0100223142654,4441,99
247,-0.0100387856364,4442,99
248,-0.0100554265082,4443,99
249,-0.0100722266361,4444,99
250,-0.0100806849077,4445,99
251,-0.0100977122784,4446,99
252,-0.0101235155016,4447,99
253,-0.010140882805,4448,99
254,-0.0101496120915,4449,99
255,-0.010175973177,4450,99
256,-0.0101848142222,4451,99
257,-0.0102114873007,4452,99
258,-0.0102204233408,4453,99
259,-0.010247355327,4454,99
260,-0.0102654006332,4455,99
261,-0.010274448432,4456,99
262,-0.0103016719222,4457,99
263,-0.0103198792785,4458,99
264,-0.0103381210938,4459,99
265,-0.0103472517803,4460,99
266,-0.0103563871235,4461,99
267,-0.0103746699169,4462,99
268,-0.0104021001607,4463,99
269,-0.0104203764349,4464,99
270,-0.0104295071214,4465,99
271,-0.0104568563402,4466,99
272,-0.0104659534991,4467,99
273,-0.0104931667447,4468,99
274,-0.0105022080243,4469,99
275,-0.0105202356353,4470,99
276,-0.0105381803587,4471,99
277,-0.0105560328811,4472,99
278,-0.0105737792328,4473,99
279,-0.0106001738459,4474,99
280,-0.0106089059263,4475,99
281,-0.0106262601912,4476,99
282,-0.0106434589252,4477,99
283,-0.0106519954279,4478,99
284,-0.0106773348525,4479,99
285,-0.0106939859688,4480,99
286,-0.0107104275376,4481,99
287,-0.0107185654342,4482,99
288,-0.0107346680015,4483,99
289,-0.0107583589852,4484,99
290,-0.0107661262155,4485,99
291,-0.0107890097424,4486,99
292,-0.0108039015904,4487,99
293,-0.0108184851706,4488,99
294,-0.0108327446505,4489,99
295,-0.0108397481963,4490,99
296,-0.0108534945175,4491,99
297,-0.0108602335677,4492,99
298,-0.0108798928559,4493,99
299,-0.0108862528577,4494,99
300,-0.0108986729756,4495,99
301,-0.0109106805176,4496,99
302,-0.0109278876334,4497,99
303,-0.0109334001318,4498,99
304,-0.010949245654,4499,99
305,-0.0109592126682,4500,99
306,-0.0109640117735,4501,99
307,-0.0109776500612,4502,99
308,-0.0109860915691,4503,99
309,-0.0109901120886,4504,99
310,-0.0109977424145,4505,99
311,-0.0110048139468,4506,99
312,-0.0110113145784,4507,99
313,-0.0110172303393,4508,99
314,-0.0110199637711,4509,99
315,-0.0110272513703,4510,99
316,-0.0110293710604,4511,99
317,-0.0110347783193,4512,99
318,-0.0110375741497,4513,99
319,-0.0110397106037,4514,99
320,-0.0110405273736,4515,99
321,-0.0110416533425,4516,99
322,-0.011042050086,4517,99
323,-0.0110418330878,4518,99
324,-0.0110401185229,4519,99
325,-0.011039189063,4520,99
326,-0.0110367853194,4521,99
327,-0.0110336495563,4522,99
328,-0.0110318046063,4523,99
329,-0.0110251540318,4524,99
330,-0.0110225621611,4525,99
331,-0.0110168112442,4526,99
332,-0.0110067585483,4527,99
333,-0.0110030258074,4528,99
334,-0.010994983837,4529,99
335,-0.0109814731404,4530,99
336,-0.0109714986756,4531,99
337,-0.0109662199393,4532,99
338,-0.0109492205083,4533,99
339,-0.0109369186684,4534,99
340,-0.0109304767102,4535,99
341,-0.0109170135111,4536,99
342,-0.0109027782455,4537,99
343,-0.0108953732997,4538,99
344,-0.0108720101416,4539,99
345,-0.0108554847538,4540,99
346,-0.0108382059261,4541,99
347,-0.010820181109,4542,99
348,-0.0108014186844,4543,99
349,-0.0107819251716,4544,99
350,-0.0107719069347,4545,99
351,-0.010751336813,4546,99
352,-0.0107191614807,4547,99
353,-0.0106968497857,4548,99
354,-0.010673862882,4549,99
355,-0.0106621207669,4550,99
356,-0.0106502156705,4551,99
357,-0.0106135392562,4552,99
358,-0.0105883060023,4553,99
359,-0.0105624673888,4554,99
360,-0.0105360392481,4555,99
361,-0.0105226105079,4556,99
362,-0.0104814944789,4557,99
363,-0.010467520915,4558,99
364,-0.0104248300195,4559,99
365,-0.0104103526101,4560,99
366,-0.0103662163019,4561,99
367,-0.0103362360969,4562,99
368,-0.0103210872039,4563,99
369,-0.0102904886007,4564,99
370,-0.0102595100179,4565,99
371,-0.0102281766012,4566,99
372,-0.0101965144277,4567,99
373,-0.0101645505056,4568,99
374,-0.010132313706,4569,99
375,-0.0100998310372,4570,99
376,-0.0100671323016,4571,99
377,-0.010050711222,4572,99
378,-0.0100177414715,4573,99
379,0.0117329629138,5335,99
380,0.0123910941184,5341,99
381,0.0118532143533,5336,99
382,0.0119132362306,5337,99
383,0.0134541960433,5350,99
384,0.0120330797508,5338,99
385,-0.0100187091157,4679,99
386,-0.0100748613477,4680,99
387,-0.0101121710613,4681,99
388,-0.0101493299007,4682,99
389,-0.0101678390056,4683,99
390,-0.0102230217308,4684,99
391,-0.0102594690397,4685,99
392,-0.0102775739506,4686,99
393,-0.0103135192767,4687,99
394,-0.0103313494474,4688,99
395,-0.0103666968644,4689,99
396,-0.0104188565165,4690,99
397,-0.0104529932141,4691,99
398,-0.0104698548093,4692,99
399,-0.0105195464566,4693,99
400,-0.0105518791825,4694,99
401,-0.0105677908286,4695,99
402,-0.010614448227,4696,99
403,-0.0106296241283,4697,99
404,-0.0106593789533,4698,99
405,-0.0107024479657,4699,99
406,-0.0107300598174,4700,99
407,-0.0107435211539,4701,99
408,-0.0107697295025,4702,99
409,-0.0107949543744,4703,99
410,-0.0108071854338,4704,99
411,-0.0108423018828,4705,99
412,-0.0108643537387,4706,99
413,-0.0108749577776,4707,99
414,-0.0109050320461,4708,99
415,-0.0109144635499,4709,99
416,-0.0109324110672,4710,99
417,-0.0109569849446,4711,99
418,-0.010971753858,4712,99
419,-0.0109851984307,4713,99
420,-0.0109972879291,4714,99
421,-0.0110079934821,4715,99
422,-0.0110172890127,4716,99
423,-0.0110213989392,4717,99
424,-0.0110285291448,4718,99
425,-0.0110341832042,4719,99
426,-0.0110383378342,4720,99
427,-0.0110409706831,4721,99
428,-0.0110417101532,4722,99
429,-0.0110415862873,4723,99
430,-0.0110395289958,4724,99
431,-0.0110379010439,4725,99
432,-0.0110305929556,4726,99
433,-0.0110236816108,4727,99
434,-0.0110151208937,4728,99
435,-0.0110048986971,4729,99
436,-0.0109930029139,4730,99
437,-0.0109794232994,4731,99
438,-0.0109719987959,4732,99
439,-0.0109558738768,4733,99
440,-0.0109471715987,4734,99
441,-0.0109284864739,4735,99
442,-0.0108972424641,4736,99
443,-0.0108742639422,4737,99
444,-0.0108495624736,4738,99
445,-0.0108231389895,4739,99
446,-0.0108092809096,4740,99
447,-0.0107651278377,4741,99
448,-0.0107335448265,4742,99
449,-0.0107171107084,4743,99
450,-0.0106652472168,4744,99
451,-0.0106285465881,4745,99
452,-0.0105901565403,4746,99
453,-0.0105703305453,4747,99
454,-0.0105294231325,4748,99
455,-0.0104868514463,4749,99
456,-0.0104649467394,4750,99
457,-0.0104199070483,4751,99
458,-0.0103732403368,4752,99
459,-0.0103002237156,4753,99
460,-0.0102495616302,4754,99
461,-0.0101973358542,4755,99
462,-0.0101435668766,4756,99
463,-0.0100882751867,4757,99
464,-0.0100314849988,4758,99
465,-0.0100025348365,4759,99
466,0.0124505562708,5342,99
467,0.0135715734214,5351,99
468,0.0125693166628,5343,99
469,0.0103897545487,5324,99
470,0.0127470670268,5344,99
471,0.0128653272986,5345,99
472,0.0129834087566,5346,99
473,0.0131013225764,5347,99
474,0.0132190836594,5348,99
475,0.0100269280374,4985,99
476,0.0101313041523,4986,99
477,0.0101828370243,4987,99
478,0.0103347459808,4988,99
479,0.0103844683617,4989,99
480,0.0104825105518,4990,99
481,0.0105786472559,4991,99
482,0.0106728374958,4992,99
483,0.010765042156,4993,99
484,0.0108103873208,4994,99
485,0.0109433401376,4995,99
486,0.0110293617472,4996,99
487,0.0110715748742,4997,99
488,0.0111949713901,4998,99
489,0.0112744960934,4999,99
490,0.0113517912105,5000,99
