,amplitude,tstep,vfp
0,-0.0107298735529,5120,99
1,-0.0106515428051,5121,99
2,-0.0105983894318,5122,99
3,-0.0105715477839,5123,99
4,-0.0104900272563,5124,99
5,-0.0104625392705,5125,99
6,-0.0104349032044,5126,99
7,-0.0103511540219,5127,99
8,-0.0103229759261,5128,99
9,-0.0102377291769,5129,99
10,-0.0101803569123,5130,99
11,-0.0101226000115,5131,99
12,-0.0100645013154,5132,99
13,-0.0100061008707,5133,99
14,-0.0100186793134,5024,99
15,-0.0100688179955,5025,99
16,-0.0101189417765,5026,99
17,-0.0101439869031,5027,99
18,-0.0102190058678,5028,99
19,-0.0102688781917,5029,99
20,-0.0103185977787,5030,99
21,-0.0103433886543,5031,99
22,-0.0103928092867,5032,99
23,-0.0104664731771,5033,99
24,-0.0104908850044,5034,99
25,-0.0105394655839,5035,99
26,-0.0105876913294,5036,99
27,-0.0106355240569,5037,99
28,-0.0106829255819,5038,99
29,-0.0107298577204,5039,99
30,-0.0107762832195,5040,99
31,-0.0108221629634,5041,99
32,-0.0108674606308,5042,99
33,-0.0109121352434,5043,99
34,-0.0109561495483,5044,99
35,-0.0109994644299,5045,99
36,-0.0110420435667,5046,99
37,-0.0110838478431,5047,99
38,-0.0111044468358,5048,99
39,-0.0111649809405,5049,99
40,-0.0111847212538,5050,99
41,-0.0112042352557,5051,99
42,-0.0112425656989,5052,99
43,-0.0112799368799,5053,99
44,-0.011316312477,5054,99
45,-0.0113689322025,5055,99
46,-0.0113859372213,5056,99
47,-0.0114352861419,5057,99
48,-0.0114667555317,5058,99
49,-0.0114820487797,5059,99
50,-0.0115117346868,5060,99
51,-0.0115539506078,5061,99
52,-0.0115805109963,5062,99
53,-0.0116057684645,5063,99
54,-0.0116179008037,5064,99
55,-0.0116411559284,5065,99
56,-0.0116522712633,5066,99
57,-0.0116835348308,5067,99
58,-0.0116932513192,5068,99
59,-0.0117202457041,5069,99
60,-0.0117364199832,5070,99
61,-0.0117439525202,5071,99
62,-0.0117643028498,5072,99
63,-0.0117759760469,5073,99
64,-0.0117861162871,5074,99
65,-0.0117906061932,5075,99
66,-0.0118017336354,5076,99
67,-0.0118071874604,5077,99
68,-0.0118093201891,5078,99
69,-0.0118133286014,5079,99
70,-0.0118138650432,5080,99
71,-0.011814000085,5081,99
72,-0.0118130631745,5082,99
73,-0.0118086347356,5083,99
74,-0.0118063511327,5084,99
75,-0.0117970723659,5085,99
76,-0.0117888664827,5086,99
77,-0.0117841577157,5087,99
78,-0.0117676146328,5088,99
79,-0.0117612974718,5089,99
80,-0.0117399478331,5090,99
81,-0.0117237269878,5091,99
82,-0.0117059275508,5092,99
83,-0.0116964392364,5093,99
84,-0.0116762937978,5094,99
85,-0.0116546014324,5095,99
86,-0.0116431796923,5096,99
87,-0.0116066392511,5097,99
88,-0.0115937069058,5098,99
89,-0.011552692391,5099,99
90,-0.0115235261619,5100,99
91,-0.0114929266274,5101,99
92,-0.0114609180018,5102,99
93,-0.0114443926141,5103,99
94,-0.011410318315,5104,99
95,-0.0113566946238,5105,99
96,-0.011319312267,5106,99
97,-0.0112806577235,5107,99
98,-0.0112407635897,5108,99
99,-0.0111996605992,5109,99
100,-0.0111786667258,5110,99
101,-0.011157383211,5111,99
102,-0.0110918357968,5112,99
103,-0.0110694365576,5113,99
104,-0.0110238399357,5114,99
105,-0.0109535176307,5115,99
106,-0.0109295817092,5116,99
107,-0.0108809964731,5117,99
108,-0.0108064031228,5118,99
109,-0.0107555901632,5119,99
0,-0.0100043276325,5020,100
1,-0.010017067194,5021,100
2,-0.0100291725248,5022,100
3,-0.010040638037,5023,100
4,-0.0100514581427,5024,100
5,-0.010056624189,5025,100
6,-0.010071143508,5026,100
7,-0.010080001317,5027,100
8,-0.0100881997496,5028,100
9,-0.0100957378745,5029,100
10,-0.010102616623,5030,100
11,-0.0101058082655,5031,100
12,-0.010114395991,5032,100
13,-0.0101193040609,5033,100
14,-0.0101215131581,5034,100
15,-0.0101235611364,5035,100
16,-0.0101287355646,5036,100
17,-0.01013138704,5037,100
18,-0.0101324766874,5038,100
19,-0.0101348077878,5039,100
20,-0.0101352762431,5040,100
21,-0.0101357745007,5041,100
22,-0.0101356413215,5042,100
23,-0.0101343682036,5043,100
24,-0.0101328035817,5044,100
25,-0.0101318107918,5045,100
26,-0.0101280128583,5046,100
27,-0.0101248146966,5047,100
28,-0.0101230209693,5048,100
29,-0.0101190526038,5049,100
30,-0.0101145925,5050,100
31,-0.0101121822372,5051,100
32,-0.0101070124656,5052,100
33,-0.0100984163582,5053,100
34,-0.0100921494886,5054,100
35,-0.0100854719058,5055,100
36,-0.0100784040987,5056,100
37,-0.0100709619001,5057,100
38,-0.0100631667301,5058,100
39,-0.0100550344214,5059,100
40,-0.0100508471951,5060,100
41,-0.0100378338248,5061,100
42,-0.0100333523005,5062,100
43,-0.0100195081905,5063,100
44,-0.0100099695846,5064,100
45,-0.0100051136687,5065,100
46,-0.0100002037361,5066,100
0,-0.0109192840755,5120,101
1,-0.010902768001,5121,101
2,-0.0108858887106,5122,101
3,-0.0108686527237,5123,101
4,-0.0108510674909,5124,101
5,-0.0108421454206,5125,101
6,-0.0108331386,5126,101
7,-0.01080561243,5127,101
8,-0.0107868472114,5128,101
9,-0.0107773421332,5129,101
10,-0.0107483398169,5130,101
11,-0.0107286032289,5131,101
12,-0.0107085490599,5132,101
13,-0.0106881763786,5133,101
14,-0.0106778712943,5134,101
15,-0.0106464838609,5135,101
16,-0.0106251640245,5136,101
17,-0.0106143858284,5137,101
18,-0.0105815744027,5138,101
19,-0.0105704776943,5139,101
20,-0.0105480449274,5140,101
21,-0.010525289923,5141,101
22,-0.0105022089556,5142,101
23,-0.0104788001627,5143,101
24,-0.0104550588876,5144,101
25,-0.0104430625215,5145,101
26,-0.0104065621272,5146,101
27,-0.0103817991912,5147,101
28,-0.010356686078,5148,101
29,-0.0103312162682,5149,101
30,-0.0103053832427,5150,101
31,-0.0102923288941,5151,101
32,-0.0102526079863,5152,101
33,-0.0102256545797,5153,101
34,-0.0101983146742,5154,101
35,-0.0101844975725,5155,101
36,-0.0101565662771,5156,101
37,-0.0101424492896,5157,101
38,-0.0101139098406,5158,101
39,-0.0100703276694,5159,101
40,-0.0100407460704,5160,101
41,-0.0100107369944,5161,101
42,-0.0100423740223,5036,101
43,-0.0100843310356,5037,101
44,-0.0101257711649,5038,101
45,-0.0101462891325,5039,101
46,-0.0102069973946,5040,101
47,-0.0102467332035,5041,101
48,-0.0102858515456,5042,101
49,-0.0103051718324,5043,101
50,-0.0103621436283,5044,101
51,-0.0103807961568,5045,101
52,-0.0104356985539,5046,101
53,-0.0104536404833,5047,101
54,-0.0104889692739,5048,101
55,-0.0105235446244,5049,101
56,-0.0105573488399,5050,101
57,-0.0105903642252,5051,101
58,-0.0106065711007,5052,101
59,-0.0106539689004,5053,101
60,-0.0106693534181,5054,101
61,-0.0107142413035,5055,101
62,-0.0107287773862,5056,101
63,-0.0107710845768,5057,101
64,-0.010798192583,5058,101
65,-0.0108244121075,5059,101
66,-0.0108497366309,5060,101
67,-0.0108620608225,5061,101
68,-0.0108976708725,5062,101
69,-0.0109090842307,5063,101
70,-0.010941946879,5064,101
71,-0.0109524400905,5065,101
72,-0.010972735472,5066,101
73,-0.0109921069816,5067,101
74,-0.0110105518252,5068,101
75,-0.0110280718654,5069,101
76,-0.0110446661711,5070,101
77,-0.011060337536,5071,101
78,-0.0110678281635,5072,101
79,-0.0110889235511,5073,101
80,-0.0111018456519,5074,101
81,-0.0111138606444,5075,101
82,-0.0111249731854,5076,101
83,-0.0111351907253,5077,101
84,-0.0111399656162,5078,101
85,-0.0111529696733,5079,101
86,-0.0111568672583,5080,101
87,-0.0111640132964,5081,101
88,-0.0111703025177,5082,101
89,-0.0111757460982,5083,101
90,-0.0111781526357,5084,101
91,-0.0111841326579,5085,101
92,-0.0111871026456,5086,101
93,-0.0111892716959,5087,101
94,-0.011190651916,5088,101
95,-0.011191050522,5089,101
96,-0.0111911008134,5090,101
97,-0.0111907413229,5091,101
98,-0.0111885583028,5092,101
99,-0.0111861992627,5093,101
100,-0.0111831342801,5094,101
101,-0.0111813414842,5095,101
102,-0.0111793782562,5096,101
103,-0.0111724818125,5097,101
104,-0.0111698536202,5098,101
105,-0.0111610060558,5099,101
106,-0.0111543247476,5100,101
107,-0.0111470324919,5101,101
108,-0.011139145121,5102,101
109,-0.0111349830404,5103,101
110,-0.0111216465011,5104,101
111,-0.011116922833,5105,101
112,-0.0111070694402,5106,101
113,-0.011091299355,5107,101
114,-0.0110801467672,5108,101
115,-0.0110684968531,5109,101
116,-0.0110624898225,5110,101
117,-0.0110501199961,5111,101
118,-0.0110372873023,5112,101
119,-0.0110307000577,5113,101
120,-0.0110171940178,5114,101
121,-0.0110032530501,5115,101
122,-0.0109815523028,5116,101
123,-0.0109665729105,5117,101
124,-0.0109511949122,5118,101
125,-0.0109354294837,5119,101
0,-0.0103367818519,5120,102
1,-0.0103280581534,5121,102
2,-0.0103208962828,5122,102
3,-0.0103169083595,5123,102
4,-0.0103032942861,5124,102
5,-0.0102982046083,5125,102
6,-0.0102871926501,5126,102
7,-0.0102750677615,5127,102
8,-0.0102685857564,5128,102
9,-0.0102547835559,5129,102
10,-0.0102319791913,5130,102
11,-0.0102153802291,5131,102
12,-0.010197664611,5132,102
13,-0.0101788397878,5133,102
14,-0.0101690143347,5134,102
15,-0.0101485401392,5135,102
16,-0.0101157929748,5136,102
17,-0.0100926207379,5137,102
18,-0.0100683923811,5138,102
19,-0.0100558875129,5139,102
20,-0.0100301047787,5140,102
21,-0.0100033106282,5141,102
22,-0.010000131093,5082,102
23,-0.0100172711536,5083,102
24,-0.0100258039311,5084,102
25,-0.0100512066856,5085,102
26,-0.0100679462776,5086,102
27,-0.010084496811,5087,102
28,-0.0101008266211,5088,102
29,-0.0101169096306,5089,102
30,-0.0101248472929,5090,102
31,-0.0101404991001,5091,102
32,-0.0101633574814,5092,102
33,-0.0101781394333,5093,102
34,-0.0101925199851,5094,102
35,-0.0101995486766,5095,102
36,-0.0102132670581,5096,102
37,-0.0102265058085,5097,102
38,-0.0102392332628,5098,102
39,-0.010245394893,5099,102
40,-0.0102630285546,5100,102
41,-0.0102740339935,5101,102
42,-0.0102844052017,5102,102
43,-0.010289343074,5103,102
44,-0.0103031238541,5104,102
45,-0.0103073604405,5105,102
46,-0.0103189460933,5106,102
47,-0.0103224227205,5107,102
48,-0.0103316474706,5108,102
49,-0.0103367595002,5109,102
50,-0.0103389937431,5110,102
51,-0.010342804715,5111,102
52,-0.0103457188234,5112,102
53,-0.010347712785,5113,102
54,-0.0103487633169,5114,102
55,-0.0103488480672,5115,102
56,-0.0103479484096,5116,102
57,-0.010346043855,5117,102
58,-0.0103431195021,5118,102
59,-0.0103412689641,5119,102
0,-0.011276259087,5120,103
1,-0.0112992925569,5121,103
2,-0.0113452207297,5122,103
3,-0.0114136924967,5123,103
4,-0.0114363841712,5124,103
5,-0.0114815440029,5125,103
6,-0.0115040000528,5126,103
7,-0.0115708196536,5127,103
8,-0.0116148572415,5128,103
9,-0.0116584422067,5129,103
10,-0.0117015345022,5130,103
11,-0.0117440931499,5131,103
12,-0.0117860771716,5132,103
13,-0.0118274465203,5133,103
14,-0.011868160218,5134,103
15,-0.0119081782177,5135,103
16,-0.0119474604726,5136,103
17,-0.0119859650731,5137,103
18,-0.0120049128309,5138,103
19,-0.0120604811236,5139,103
20,-0.0120785618201,5140,103
21,-0.012114030309,5141,103
22,-0.0121314078569,5142,103
23,-0.0121820569038,5143,103
24,-0.0122145367786,5144,103
25,-0.012230376713,5145,103
26,-0.0122762368992,5146,103
27,-0.0123053817078,5147,103
28,-0.0123333390802,5148,103
29,-0.012346861884,5149,103
30,-0.0123855471611,5150,103
31,-0.0124097261578,5151,103
32,-0.0124213192612,5152,103
33,-0.0124540599063,5153,103
34,-0.0124741466716,5154,103
35,-0.0124836554751,5155,103
36,-0.0124928029254,5156,103
37,-0.0125180343166,5157,103
38,-0.0125329755247,5158,103
39,-0.0125463772565,5159,103
40,-0.0125524923205,5160,103
41,-0.0125684486702,5161,103
42,-0.0125770615414,5162,103
43,-0.0125840250403,5163,103
44,-0.0125893121585,5164,103
45,-0.01259132009,5165,103
46,-0.0125940479338,5166,103
47,-0.0125948814675,5167,103
48,-0.0125932330266,5168,103
49,-0.0125897964463,5169,103
50,-0.0125845540315,5170,103
51,-0.012581249699,5171,103
52,-0.0125732626766,5172,103
53,-0.0125634269789,5173,103
54,-0.0125517258421,5174,103
55,-0.0125381452963,5175,103
56,-0.0125306462869,5176,103
57,-0.0125052956864,5177,103
58,-0.0124860033393,5178,103
59,-0.012464787811,5179,103
60,-0.0124416388571,5180,103
61,-0.0124165518209,5181,103
62,-0.0123895183206,5182,103
63,-0.0123605336994,5183,103
64,-0.0123295960948,5184,103
65,-0.0122967017815,5185,103
66,-0.0122795207426,5186,103
67,-0.0122436909005,5187,103
68,-0.0122059034184,5188,103
69,-0.0121661610901,5189,103
70,-0.0121244676411,5190,103
71,-0.0120808258653,5191,103
72,-0.0120582766831,5192,103
73,-0.0120117235929,5193,103
74,-0.0119382739067,5194,103
75,-0.0118869058788,5195,103
76,-0.0118336295709,5196,103
77,-0.0117784542963,5197,103
78,-0.0117213940248,5198,103
79,-0.0116624608636,5199,103
80,-0.0116016706452,5200,103
81,-0.0115705830976,5201,103
82,-0.0115070352331,5202,103
83,-0.0114416703582,5203,103
84,-0.0114083122462,5204,103
85,-0.0113402549177,5205,103
86,-0.011234857142,5206,103
87,-0.0111624151468,5207,103
88,-0.0110882557929,5208,103
89,-0.0110124042258,5209,103
90,-0.0109348837286,5210,103
91,-0.0108557194471,5211,103
92,-0.0108155282214,5212,103
93,-0.0107339452952,5213,103
94,-0.0106507847086,5214,103
95,-0.0105231450871,5215,103
96,-0.01047984045,5216,103
97,-0.0104361632839,5217,103
98,-0.0103029292077,5218,103
99,-0.0102123115212,5219,103
100,-0.0101202949882,5220,103
101,-0.0100269103423,5221,103
102,-0.0100030815229,5090,103
103,-0.0100413896143,5091,103
104,-0.0100607620552,5092,103
105,-0.0101197324693,5093,103
106,-0.0101597402245,5094,103
107,-0.0101799461991,5095,103
108,-0.010220753029,5096,103
109,-0.010262071155,5097,103
110,-0.0103038819507,5098,103
111,-0.0103461667895,5099,103
112,-0.0103674819693,5100,103
113,-0.0104320794344,5101,103
114,-0.0104756625369,5102,103
115,-0.0105196321383,5103,103
116,-0.0105417547747,5104,103
117,-0.0105862608179,5105,103
118,-0.0106536196545,5106,103
119,-0.0106762191281,5107,103
120,-0.010721616447,5108,103
121,-0.0107901571319,5109,103
122,-0.0108131077141,5110,103
123,-0.0108361039311,5111,103
124,-0.0109053263441,5112,103
125,-0.0109516307712,5113,103
126,-0.010974816978,5114,103
127,-0.0110444650054,5115,103
128,-0.011090926826,5116,103
129,-0.011114154011,5117,103
130,-0.01116057951,5118,103
131,-0.0112069351599,5119,103
