,amplitude,tstep,vfp
0,-0.0100369183347,4464,98
1,-0.0100833177567,4465,98
2,-0.0101294852793,4466,98
3,-0.0101754013449,4467,98
4,-0.0101982587948,4468,98
5,-0.0102664008737,4469,98
6,-0.010311447084,4470,98
7,-0.0103561654687,4471,98
8,-0.0104005364701,4472,98
9,-0.0104225864634,4473,98
10,-0.0104663996026,4474,98
11,-0.010509820655,4475,98
12,-0.010531376116,4476,98
13,-0.0105954026803,4477,98
14,-0.010637528263,4478,98
15,-0.0106791863218,4479,98
16,-0.0107203582302,4480,98
17,-0.0107407569885,4481,98
18,-0.0108011774719,4482,98
19,-0.0108407903463,4483,98
20,-0.0108798537403,4484,98
21,-0.0108991730958,4485,98
22,-0.0109562631696,4486,98
23,-0.0109935803339,4487,98
24,-0.0110302893445,4488,98
25,-0.0110663771629,4489,98
26,-0.0110841831192,4490,98
27,-0.0111193154007,4491,98
28,-0.0111366370693,4492,98
29,-0.011187617667,4493,98
30,-0.0112207671627,4494,98
31,-0.0112370885909,4495,98
32,-0.011269220151,4496,98
33,-0.0113006606698,4497,98
34,-0.0113465152681,4498,98
35,-0.0113762067631,4499,98
36,-0.0114051913843,4500,98
37,-0.0114334663376,4501,98
38,-0.0114610260352,4502,98
39,-0.0114878751338,4503,98
40,-0.0115140099078,4504,98
41,-0.0115268100053,4505,98
42,-0.0115394322202,4506,98
43,-0.0115641439334,4507,98
44,-0.0115998834372,4508,98
45,-0.0116114458069,4509,98
46,-0.011645084247,4510,98
47,-0.011666642502,4511,98
48,-0.0116771655157,4512,98
49,-0.0117077156901,4513,98
50,-0.0117175644264,4514,98
51,-0.0117461187765,4515,98
52,-0.0117643428966,4516,98
53,-0.0117819281295,4517,98
54,-0.0117988903075,4518,98
55,-0.0118071390316,4519,98
56,-0.0118231866509,4520,98
57,-0.0118309864774,4521,98
58,-0.0118461484089,4522,98
59,-0.0118678240106,4523,98
60,-0.0118815861642,4524,98
61,-0.0118882665411,4525,98
62,-0.0119075272232,4526,98
63,-0.0119197387248,4527,98
64,-0.0119256610051,4528,98
65,-0.0119427274913,4529,98
66,-0.0119535410777,4530,98
67,-0.0119639215991,4531,98
68,-0.0119738923386,4532,98
69,-0.011983467266,4533,98
70,-0.0119926650077,4534,98
71,-0.0119971288368,4535,98
72,-0.012005796656,4536,98
73,-0.0120141319931,4537,98
74,-0.0120221534744,4538,98
75,-0.012026052922,4539,98
76,-0.0120373293757,4540,98
77,-0.0120445173234,4541,98
78,-0.0120514621958,4542,98
79,-0.0120581798255,4543,98
80,-0.0120646897703,4544,98
81,-0.0120678711683,4545,98
82,-0.0120740942657,4546,98
83,-0.0120831122622,4547,98
84,-0.0120860412717,4548,98
85,-0.0120946252719,4549,98
86,-0.0120974248275,4550,98
87,-0.0121001936495,4551,98
88,-0.0121083473787,4552,98
89,-0.0121136680245,4553,98
90,-0.012118909508,4554,98
91,-0.0121215032414,4555,98
92,-0.0121266460046,4556,98
93,-0.0121317356825,4557,98
94,-0.0121367815882,4558,98
95,-0.0121417893097,4559,98
96,-0.0121467681602,4560,98
97,-0.0121517237276,4561,98
98,-0.0121566625312,4562,98
99,-0.012161587365,4563,98
100,-0.0121665066108,4564,98
101,-0.0121714212,4565,98
102,-0.0121763329953,4566,98
103,-0.0121787916869,4567,98
104,-0.0121861668304,4568,98
105,-0.0121910879388,4569,98
106,-0.01219601091,4570,98
107,-0.0122009385377,4571,98
108,-0.0122058652341,4572,98
109,-0.0122107928619,4573,98
110,-0.0122157176957,4574,98
111,-0.0122181782499,4575,98
112,-0.0122255468741,4576,98
113,-0.0122304437682,4577,98
114,-0.012232885696,4578,98
115,-0.0122401770204,4579,98
116,-0.0122450049967,4580,98
117,-0.0122474059463,4581,98
118,-0.0122521799058,4582,98
119,-0.0122545519844,4583,98
120,-0.0122592579573,4584,98
121,-0.0122662177309,4585,98
122,-0.0122707774863,4586,98
123,-0.0122730331495,4587,98
124,-0.0122796799988,4588,98
125,-0.0122840078548,4589,98
126,-0.0122882435098,4590,98
127,-0.0122903240845,4591,98
128,-0.01229440514,4592,98
129,-0.0123003190383,4593,98
130,-0.0123041076586,4594,98
131,-0.0123077686876,4595,98
132,-0.0123095503077,4596,98
133,-0.0123130045831,4597,98
134,-0.0123163117096,4598,98
135,-0.0123194670305,4599,98
136,-0.0123224621639,4600,98
137,-0.0123252924532,4601,98
138,-0.0123266456649,4602,98
139,-0.0123304408044,4603,98
140,-0.0123327476904,4604,98
141,-0.0123338317499,4605,98
142,-0.0123368017375,4606,98
143,-0.0123385451734,4607,98
144,-0.0123400939628,4608,98
145,-0.0123414453119,4609,98
146,-0.0123420469463,4610,98
147,-0.0123431012034,4611,98
148,-0.0123439524323,4612,98
149,-0.0123446043581,4613,98
150,-0.0123450532556,4614,98
151,-0.0123452041298,4615,98
152,-0.0123453531414,4616,98
153,-0.01234530285,4617,98
154,-0.0123448595405,4618,98
155,-0.01234432403,4619,98
156,-0.0123435975984,4620,98
157,-0.0123426849023,4621,98
158,-0.0123415915295,4622,98
159,-0.0123409768566,4623,98
160,-0.0123388776556,4624,98
161,-0.0123372701928,4625,98
162,-0.0123364049941,4626,98
163,-0.0123345609754,4627,98
164,-0.0123325679451,4628,98
165,-0.0123304333538,4629,98
166,-0.0123281665146,4630,98
167,-0.0123257730156,4631,98
168,-0.0123232658952,4632,98
169,-0.0123206479475,4633,98
170,-0.0123193031177,4634,98
171,-0.0123151307926,4635,98
172,-0.0123122492805,4636,98
173,-0.0123107824475,4637,98
174,-0.012306288816,4638,98
175,-0.012303231284,4639,98
176,-0.0123016871512,4640,98
177,-0.0122985765338,4641,98
178,-0.0122970109805,4642,98
179,-0.0122922956944,4643,98
180,-0.0122891487554,4644,98
181,-0.0122875776142,4645,98
182,-0.0122828902677,4646,98
183,-0.0122798001394,4647,98
184,-0.0122767509893,4648,98
185,-0.0122737493366,4649,98
186,-0.0122722703964,4650,98
187,-0.0122679322958,4651,98
188,-0.0122665250674,4652,98
189,-0.0122637692839,4653,98
190,-0.0122598111629,4654,98
191,-0.0122572984546,4655,98
192,-0.0122560821474,4656,98
193,-0.0122537380084,4657,98
194,-0.0122515140101,4658,98
195,-0.0122494157404,4659,98
196,-0.0122484164312,4660,98
197,-0.0122456215322,4661,98
198,-0.0122439367697,4662,98
199,-0.0122431498021,4663,98
200,-0.0122416876256,4664,98
201,-0.0122403763235,4665,98
202,-0.0122386999428,4666,98
203,-0.0122377788648,4667,98
204,-0.0122370161116,4668,98
205,-0.0122366948053,4669,98
206,-0.0122359683737,4670,98
207,-0.0122358063236,4671,98
208,-0.0122355977073,4672,98
209,-0.0122355436906,4673,98
210,-0.0122355753556,4674,98
211,-0.0122358938679,4675,98
212,-0.0122360754758,4676,98
213,-0.0122365429997,4677,98
214,-0.012237505056,4678,98
215,-0.01223831065,4679,98
216,-0.0122392419726,4680,98
217,-0.012239751406,4681,98
218,-0.0122414501384,4682,98
219,-0.0122420703992,4683,98
220,-0.0122440727428,4684,98
221,-0.0122455181554,4685,98
222,-0.0122462697327,4686,98
223,-0.0122478259727,4687,98
224,-0.0122486287728,4688,98
225,-0.0122511163354,4689,98
226,-0.0122528281063,4690,98
227,-0.0122545706108,4691,98
228,-0.0122563345358,4692,98
229,-0.0122572202235,4693,98
230,-0.0122589943931,4694,98
231,-0.0122616328299,4695,98
232,-0.0122625036165,4696,98
233,-0.0122642144561,4697,98
234,-0.0122658843175,4698,98
235,-0.0122674982995,4699,98
236,-0.012269789353,4700,98
237,-0.0122705101967,4701,98
238,-0.0122718857601,4702,98
239,-0.0122725376859,4703,98
240,-0.0122743183747,4704,98
241,-0.0122753540054,4705,98
242,-0.012276250869,4706,98
243,-0.0122766466811,4707,98
244,-0.01227732189,4708,98
245,-0.0122780259699,4709,98
246,-0.0122782764956,4710,98
247,-0.0122783314437,4711,98
248,-0.0122782979161,4712,98
249,-0.0122780641541,4713,98
250,-0.0122773200274,4714,98
251,-0.0122765507549,4715,98
252,-0.0122755561024,4716,98
253,-0.0122749703005,4717,98
254,-0.0122743258253,4718,98
255,-0.0122728552669,4719,98
256,-0.0122711397707,4720,98
257,-0.0122680924833,4721,98
258,-0.0122669497505,4722,98
259,-0.0122644668445,4723,98
260,-0.0122602507472,4724,98
261,-0.0122571056709,4725,98
262,-0.0122536895797,4726,98
263,-0.0122500043362,4727,98
264,-0.012246045284,4728,98
265,-0.012243963778,4729,98
266,-0.0122373104095,4730,98
267,-0.0122325373814,4731,98
268,-0.0122300470248,4732,98
269,-0.012224865146,4733,98
270,-0.0122221726924,4734,98
271,-0.012213697657,4735,98
272,-0.0122077176347,4736,98
273,-0.0122014740482,4737,98
274,-0.0121949752793,4738,98
275,-0.0121916290373,4739,98
276,-0.0121847493574,4740,98
277,-0.012173967436,4741,98
278,-0.0121664749458,4742,98
279,-0.0121587496251,4743,98
280,-0.0121507914737,4744,98
281,-0.0121426070109,4745,98
282,-0.0121384337544,4746,98
283,-0.0121299214661,4747,98
284,-0.0121255861595,4748,98
285,-0.012112269178,4749,98
286,-0.0121031412855,4750,98
287,-0.0120985032991,4751,98
288,-0.0120890866965,4752,98
289,-0.0120746158063,4753,98
290,-0.012064746581,4754,98
291,-0.0120547087863,4755,98
292,-0.0120445061475,4756,98
293,-0.0120341442525,4757,98
294,-0.0120289064944,4758,98
295,-0.0120183154941,4759,98
296,-0.0120021626353,4760,98
297,-0.0119912195951,4761,98
298,-0.0119856977835,4762,98
299,-0.0119801433757,4763,98
300,-0.0119632873684,4764,98
301,-0.011957607232,4765,98
302,-0.011940388009,4766,98
303,-0.0119287660345,4767,98
304,-0.0119170313701,4768,98
305,-0.0119051877409,4769,98
306,-0.011893237941,4770,98
307,-0.0118811819702,4771,98
308,-0.0118690272793,4772,98
309,-0.0118567692116,4773,98
310,-0.0118506038561,4774,98
311,-0.0118381967768,4775,98
312,-0.0118256909773,4776,98
313,-0.0118130864576,4777,98
314,-0.011800384149,4778,98
315,-0.0117875803262,4779,98
316,-0.0117746768519,4780,98
317,-0.0117616737261,4781,98
318,-0.0117485644296,4782,98
319,-0.0117353517562,4783,98
320,-0.0117220310494,4784,98
321,-0.0117085995153,4785,98
322,-0.0117018418387,4786,98
323,-0.0116813937202,4787,98
324,-0.0116676138714,4788,98
325,-0.0116537092254,4789,98
326,-0.0116467084736,4790,98
327,-0.0116255069152,4791,98
328,-0.0116183720529,4792,98
329,-0.0116112018004,4793,98
330,-0.011596753262,4794,98
331,-0.0115821566433,4795,98
332,-0.0115599706769,4796,98
333,-0.0115449773148,4797,98
334,-0.0115298144519,4798,98
335,-0.0115144765005,4799,98
336,-0.0114989578724,4800,98
337,-0.0114832501858,4801,98
338,-0.0114673469216,4802,98
339,-0.0114593217149,4803,98
340,-0.0114431111142,4804,98
341,-0.0114266872406,4805,98
342,-0.0114016383886,4806,98
343,-0.0113846510649,4807,98
344,-0.0113760661334,4808,98
345,-0.0113587193191,4809,98
346,-0.0113411210477,4810,98
347,-0.0113232629374,4811,98
348,-0.011305142194,4812,98
349,-0.0112867467105,4813,98
350,-0.011268070899,4814,98
351,-0.0112586244941,4815,98
352,-0.0112298456952,4816,98
353,-0.0112102814019,4817,98
354,-0.0111904069781,4818,98
355,-0.0111702131107,4819,98
356,-0.0111496951431,4820,98
357,-0.0111393099651,4821,98
358,-0.0111182890832,4822,98
359,-0.0110969236121,4823,98
360,-0.0110861100256,4824,98
361,-0.0110642137006,4825,98
362,-0.0110419588163,4826,98
363,-0.011007880792,4827,98
364,-0.0109846917912,4828,98
365,-0.0109729534015,4829,98
366,-0.0109371505678,4830,98
367,-0.0109127881005,4831,98
368,-0.010888023302,4832,98
369,-0.0108628487214,4833,98
370,-0.010850106366,4834,98
371,-0.0108112506568,4835,98
372,-0.0107980873436,4836,98
373,-0.0107714403421,4837,98
374,-0.0107443593442,4838,98
375,-0.0107306558639,4839,98
376,-0.010702919215,4840,98
377,-0.0106747383252,4841,98
378,-0.0106461122632,4842,98
379,-0.0106170345098,4843,98
380,-0.0105725675821,4844,98
381,-0.0105423508212,4845,98
382,-0.0105116721243,4846,98
383,-0.0104805296287,4847,98
384,-0.0104489214718,4848,98
385,-0.0104329418391,4849,98
386,-0.010400631465,4850,98
387,-0.0103678517044,4851,98
388,-0.0103346016258,4852,98
389,-0.0103008784354,4853,98
390,-0.010266684927,4854,98
391,-0.0102320183069,4855,98
392,-0.0101968804374,4856,98
393,-0.0101612685248,4857,98
394,-0.0101432874799,4858,98
395,-0.0100886384025,4859,98
396,-0.0100516192615,4860,98
397,-0.0100141363218,4861,98
0,-0.0100632198155,4432,99
1,-0.0101350778714,4433,99
2,-0.0102063138038,4434,99
3,-0.0102416956797,4435,99
4,-0.0103468922898,4436,99
5,-0.0104162236676,4437,99
6,-0.0104849087074,4438,99
7,-0.0105529408902,4439,99
8,-0.0106203146279,4440,99
9,-0.0106870252639,4441,99
10,-0.0107530672103,4442,99
11,-0.0108184367418,4443,99
12,-0.0108508672565,4444,99
13,-0.0109152179211,4445,99
14,-0.0109471371397,4446,99
15,-0.0110418638214,4447,99
16,-0.0110730938613,4448,99
17,-0.0111657390371,4449,99
18,-0.0111962724477,4450,99
19,-0.0112868184224,4451,99
20,-0.0113463001326,4452,99
21,-0.0114050731063,4453,99
22,-0.0114631345496,4454,99
23,-0.0115204835311,4455,99
24,-0.0115771172568,4456,99
25,-0.0116051649675,4457,99
26,-0.011660721153,4458,99
27,-0.0117155583575,4459,99
28,-0.0117696728557,4460,99
29,-0.0118230655789,4461,99
30,-0.0118757346645,4462,99
31,-0.0119017977268,4463,99
32,-0.0119788991287,4464,99
33,-0.0120293935761,4465,99
34,-0.0120791625232,4466,99
35,-0.0121037745848,4467,99
36,-0.0121765239164,4468,99
37,-0.0122241182253,4469,99
38,-0.0122476443648,4470,99
39,-0.0122941527516,4471,99
40,-0.0123625602573,4472,99
41,-0.0124072628096,4473,99
42,-0.0124512463808,4474,99
43,-0.0124729685485,4475,99
44,-0.0124945119023,4476,99
45,-0.0125580653548,4477,99
46,-0.0125995408744,4478,99
47,-0.0126403048635,4479,99
48,-0.0126803601161,4480,99
49,-0.0127001218498,4481,99
50,-0.0127583490685,4482,99
51,-0.0127774067223,4483,99
52,-0.0128149949014,4484,99
53,-0.0128518845886,4485,99
54,-0.0128880785778,4486,99
55,-0.0129235787317,4487,99
56,-0.0129755353555,4488,99
57,-0.0130093144253,4489,99
58,-0.0130259478465,4490,99
59,-0.0130424117669,4491,99
60,-0.0130748301744,4492,99
61,-0.0131065724418,4493,99
62,-0.0131529243663,4494,99
63,-0.013168040663,4495,99
64,-0.0131977731362,4496,99
65,-0.0132411308587,4497,99
66,-0.0132692139596,4498,99
67,-0.0132966423407,4499,99
68,-0.0133234206587,4500,99
69,-0.0133495517075,4501,99
70,-0.013362375088,4502,99
71,-0.013387542218,4503,99
72,-0.013424096629,4504,99
73,-0.0134359644726,4505,99
74,-0.0134592279792,4506,99
75,-0.013481862843,4507,99
76,-0.0134929455817,4508,99
77,-0.0135146453977,4509,99
78,-0.013546035625,4510,99
79,-0.0135661950335,4511,99
80,-0.013585742563,4512,99
81,-0.0136046828702,4513,99
82,-0.0136139262468,4514,99
83,-0.0136407539248,4515,99
84,-0.0136493975297,4516,99
85,-0.0136744352058,4517,99
86,-0.0136824846268,4518,99
87,-0.0136981410906,4519,99
88,-0.0137132117525,4520,99
89,-0.0137276984751,4521,99
90,-0.0137416049838,4522,99
91,-0.01374834124,4523,99
92,-0.0137676866725,4524,99
93,-0.0137798693031,4525,99
94,-0.0137914819643,4526,99
95,-0.013797076419,4527,99
96,-0.0138130132109,4528,99
97,-0.0138229355216,4529,99
98,-0.0138323018327,4530,99
99,-0.0138367768377,4531,99
100,-0.0138453105465,4532,99
101,-0.0138570806012,4533,99
102,-0.0138607304543,4534,99
103,-0.0138676222414,4535,99
104,-0.0138708641753,4536,99
105,-0.0138769419864,4537,99
106,-0.0138824824244,4538,99
107,-0.0138897914439,4539,99
108,-0.0138919614255,4540,99
109,-0.0138976788148,4541,99
110,-0.0138993216679,4542,99
111,-0.0139022143558,4543,99
112,-0.0139045873657,4544,99
113,-0.0139064434916,4545,99
114,-0.0139077855274,4546,99
115,-0.0139086162671,4547,99
116,-0.0139089114964,4548,99
117,-0.0139087578282,4549,99
118,-0.0139080770314,4550,99
119,-0.0139068989083,4551,99
120,-0.0139052281156,4552,99
121,-0.0139030674472,4553,99
122,-0.0139004224911,4554,99
123,-0.0138972951099,4555,99
124,-0.0138955535367,4556,99
125,-0.0138896172866,4557,99
126,-0.0138850733638,4558,99
127,-0.0138800665736,4559,99
128,-0.0138746025041,4560,99
129,-0.0138716995716,4561,99
130,-0.0138655584306,4562,99
131,-0.0138589721173,4563,99
132,-0.0138482693583,4564,99
133,-0.0138444853947,4565,99
134,-0.0138365970924,4566,99
135,-0.0138282859698,4567,99
136,-0.0138195594773,4568,99
137,-0.0138150425628,4569,99
138,-0.0138008892536,4570,99
139,-0.013790958561,4571,99
140,-0.0137806404382,4572,99
141,-0.0137699414045,4573,99
142,-0.0137588698417,4574,99
143,-0.0137474322692,4575,99
144,-0.0137356389314,4576,99
145,-0.0137296114117,4577,99
146,-0.0137172993273,4578,99
147,-0.0136982044205,4579,99
148,-0.0136916777119,4580,99
149,-0.0136783868074,4581,99
150,-0.0136716254056,4582,99
151,-0.0136578772217,4583,99
152,-0.0136367073283,4584,99
153,-0.01362224482,4585,99
154,-0.0136149125174,4586,99
155,-0.0135925281793,4587,99
156,-0.0135772954673,4588,99
157,-0.0135695897043,4589,99
158,-0.0135540077463,4590,99
159,-0.0135302292183,4591,99
160,-0.0135222002864,4592,99
161,-0.0134978266433,4593,99
162,-0.0134896114469,4594,99
163,-0.0134647162631,4595,99
164,-0.0134563390166,4596,99
165,-0.01343947649,4597,99
166,-0.013422479853,4598,99
167,-0.0134053630754,4599,99
168,-0.0133881373331,4600,99
169,-0.0133708175272,4601,99
170,-0.0133621254936,4602,99
171,-0.0133446874097,4603,99
172,-0.0133184175938,4604,99
173,-0.0133096380159,4605,99
174,-0.0132832536474,4606,99
175,-0.0132656423375,4607,99
176,-0.0132480300963,4608,99
177,-0.0132392281666,4609,99
178,-0.0132128577679,4610,99
179,-0.0132040856406,4611,99
180,-0.0131865795702,4612,99
181,-0.013177848421,4613,99
182,-0.0131517648697,4614,99
183,-0.013134483248,4615,99
184,-0.0131173050031,4616,99
185,-0.0131087582558,4617,99
186,-0.0130917597562,4618,99
187,-0.0130665227771,4619,99
188,-0.0130498930812,4620,99
189,-0.0130334338173,4621,99
190,-0.0130171589553,4622,99
191,-0.0130010833964,4623,99
192,-0.012985217385,4624,99
193,-0.0129695767537,4625,99
194,-0.0129618439823,4626,99
195,-0.0129465628415,4627,99
196,-0.0129315378144,4628,99
197,-0.0129167819396,4629,99
198,-0.0129023082554,4630,99
199,-0.0128881279379,4631,99
200,-0.0128811514005,4632,99
201,-0.0128674320877,4633,99
202,-0.0128474636003,4634,99
203,-0.0128345722333,4635,99
204,-0.0128220319748,4636,99
205,-0.0128098530695,4637,99
206,-0.0127980466932,4638,99
207,-0.0127922855318,4639,99
208,-0.0127755887806,4640,99
209,-0.0127702225,4641,99
210,-0.0127597963437,4642,99
211,-0.0127497855574,4643,99
212,-0.0127401985228,4644,99
213,-0.0127355670556,4645,99
214,-0.0127223320305,4646,99
215,-0.0127181438729,4647,99
216,-0.0127062620595,4648,99
217,-0.012698918581,4649,99
218,-0.0126920472831,4650,99
219,-0.0126856528223,4651,99
220,-0.0126826371998,4652,99
221,-0.0126743204892,4653,99
222,-0.0126693937927,4654,99
223,-0.0126649662852,4655,99
224,-0.01266294159,4656,99
225,-0.0126592731103,4657,99
226,-0.0126576302573,4658,99
227,-0.0126547301188,4659,99
228,-0.0126513503492,4660,99
229,-0.0126504842192,4661,99
230,-0.0126486709341,4662,99
231,-0.0126483291388,4663,99
232,-0.0126480972394,4664,99
233,-0.0126482853666,4665,99
234,-0.0126490592957,4666,99
235,-0.0126512181014,4667,99
236,-0.0126522034407,4668,99
237,-0.0126559603959,4669,99
238,-0.0126591324806,4670,99
239,-0.012660917826,4671,99
240,-0.0126648880541,4672,99
241,-0.0126670720056,4673,99
242,-0.0126744201407,4674,99
243,-0.0126771340147,4675,99
244,-0.0126829566434,4676,99
245,-0.0126893054694,4677,99
246,-0.012696175836,4678,99
247,-0.0127074569464,4679,99
248,-0.012711474672,4680,99
249,-0.0127242980525,4681,99
250,-0.0127334827557,4682,99
251,-0.0127431713045,4683,99
252,-0.0127533581108,4684,99
253,-0.0127640394494,4685,99
254,-0.0127695640549,4686,99
255,-0.0127809783444,4687,99
256,-0.0127868661657,4688,99
257,-0.0128052448854,4689,99
258,-0.0128116067499,4690,99
259,-0.0128313908353,4691,99
260,-0.0128451539204,4692,99
261,-0.0128522049636,4693,99
262,-0.0128740258515,4694,99
263,-0.0128891207278,4695,99
264,-0.0128968302161,4696,99
265,-0.0129205947742,4697,99
266,-0.0129369581118,4698,99
267,-0.0129452925175,4699,99
268,-0.0129708983004,4700,99
269,-0.0129796303809,4701,99
270,-0.0129973832518,4702,99
271,-0.0130155142397,4703,99
272,-0.0130340158939,4704,99
273,-0.0130528789014,4705,99
274,-0.0130624435842,4706,99
275,-0.0130916535854,4707,99
276,-0.0131015591323,4708,99
277,-0.0131216160953,4709,99
278,-0.0131523003802,4710,99
279,-0.0131731405854,4711,99
280,-0.0131942778826,4712,99
281,-0.0132049545646,4713,99
282,-0.0132374037057,4714,99
283,-0.0132593726739,4715,99
284,-0.0132815996185,4716,99
285,-0.013292806223,4717,99
286,-0.0133153991774,4718,99
287,-0.0133267836645,4719,99
288,-0.0133497212082,4720,99
289,-0.0133728748187,4721,99
290,-0.0133962351829,4722,99
291,-0.0134316384792,4723,99
292,-0.0134435314685,4724,99
293,-0.0134794665501,4725,99
294,-0.0135036250576,4726,99
295,-0.0135279307142,4727,99
296,-0.0135523751378,4728,99
297,-0.0135769443586,4729,99
298,-0.0135892732069,4730,99
299,-0.0136140128598,4731,99
300,-0.0136388521641,4732,99
