,amplitude,tstep,vfp
0,0.0100092422217,4810,98
1,0.0100373122841,4811,98
2,0.0100928675383,4812,98
3,0.0101476395503,4813,98
4,0.0102016236633,4814,98
5,0.0102548124269,4815,98
6,0.010307203047,4816,98
7,0.0103842783719,4817,98
8,0.0104346461594,4818,98
9,0.0104842009023,4819,98
10,0.0105329332873,4820,98
11,0.0105808451772,4821,98
12,0.010604490526,4822,98
13,0.0106511609629,4823,98
14,0.0106970053166,4824,98
15,0.0107420198619,4825,98
16,0.0107642170042,4826,98
17,0.0108295632526,4827,98
18,0.0108720930293,4828,98
19,0.0109137976542,4829,98
20,0.0109343426302,4830,98
21,0.0109947435558,4831,98
22,0.0110144698992,4832,98
23,0.0110533162951,4833,98
24,0.011091357097,4834,98
25,0.0111286006868,4835,98
26,0.0111829880625,4836,98
27,0.0112007288262,4837,98
28,0.0112356320024,4838,98
29,0.0112697780132,4839,98
30,0.0113031780347,4840,98
31,0.011335844174,4841,98
32,0.0113677922636,4842,98
33,0.0113835008815,4843,98
34,0.011429595761,4844,98
35,0.0114594856277,4845,98
36,0.0114887254313,4846,98
37,0.0115031087771,4847,98
38,0.0115453321487,4848,98
39,0.0115727428347,4849,98
40,0.0115995863453,4850,98
41,0.0116128036752,4851,98
42,0.0116388397291,4852,98
43,0.0116643700749,4853,98
44,0.0116894161329,4854,98
45,0.0117140077055,4855,98
46,0.0117381680757,4856,98
47,0.0117619261146,4857,98
48,0.011773660779,4858,98
49,0.0117968637496,4859,98
50,0.0118310507387,4860,98
51,0.011853470467,4861,98
52,0.0118645783514,4862,98
53,0.0118975434452,4863,98
54,0.0119192581624,4864,98
55,0.0119407940656,4865,98
56,0.0119621800259,4866,98
57,0.0119834458455,4867,98
58,0.0119940405712,4868,98
59,0.0120151760057,4869,98
60,0.0120257223025,4870,98
61,0.0120573155582,4871,98
62,0.0120678432286,4872,98
63,0.0120994579047,4873,98
64,0.0121205942705,4874,98
65,0.0121418014169,4875,98
66,0.012152440846,4876,98
67,0.0121845323592,4877,98
68,0.0121952965856,4878,98
69,0.0122278220952,4879,98
70,0.0122497258708,4880,98
71,0.0122718242928,4881,98
72,0.0122941322625,4882,98
73,0.012305370532,4883,98
74,0.012328020297,4884,98
75,0.0123509159312,4885,98
76,0.0123624578118,4886,98
77,0.0123974774033,4887,98
78,0.0124092847109,4888,98
79,0.0124451201409,4889,98
80,0.0124693615362,4890,98
81,0.0124815898016,4891,98
82,0.0125062577426,4892,98
83,0.0125437900424,4893,98
84,0.0125691620633,4894,98
85,0.0125948125497,4895,98
86,0.0126207331195,4896,98
87,0.012633793056,4897,98
88,0.0126601057127,4898,98
89,0.012673355639,4899,98
90,0.0127134658396,4900,98
91,0.0127269495279,4901,98
92,0.0127677228302,4902,98
93,0.0127951521426,4903,98
94,0.0128227574751,4904,98
95,0.0128366211429,4905,98
96,0.0128644555807,4906,98
97,0.0129064396024,4907,98
98,0.0129345534369,4908,98
99,0.0129627389833,4909,98
100,0.0129909701645,4910,98
101,0.0130192246288,4911,98
102,0.0130333509296,4912,98
103,0.0130615876988,4913,98
104,0.0130897797644,4914,98
105,0.0131178982556,4915,98
106,0.0131459143013,4916,98
107,0.0131738008931,4917,98
108,0.0131876869127,4918,98
109,0.0132153239101,4919,98
110,0.0132427550852,4920,98
111,0.013269954361,4921,98
112,0.0133102480322,4922,98
113,0.0133235286921,4923,98
114,0.0133498450741,4924,98
115,0.0133886476979,4925,98
116,0.0134140253067,4926,98
117,0.0134389763698,4927,98
118,0.0134512828663,4928,98
119,0.0134755400941,4929,98
120,0.0134992990643,4930,98
121,0.0135225355625,4931,98
122,0.013533947058,4932,98
123,0.0135673228651,4933,98
124,0.0135888271034,4934,98
125,0.0135993445292,4935,98
126,0.0136299272999,4936,98
127,0.0136494766921,4937,98
128,0.013668329455,4938,98
129,0.0136774890125,4939,98
130,0.0136952558532,4940,98
131,0.0137122767046,4941,98
132,0.013736362569,4942,98
133,0.0137514295056,4943,98
134,0.0137586602941,4944,98
135,0.0137656861916,4945,98
136,0.0137855168432,4946,98
137,0.0137976761907,4947,98
138,0.0138089722022,4948,98
139,0.0138193927705,4949,98
140,0.0138289257884,4950,98
141,0.01383756008,4951,98
142,0.0138452816755,4952,98
143,0.0138520849869,4953,98
144,0.0138579588383,4954,98
145,0.0138628957793,4955,98
146,0.0138650108129,4956,98
147,0.0138699254021,4957,98
148,0.01387108583,4958,98
149,0.0138726849109,4959,98
150,0.0138733163476,4960,98
151,0.0138729726896,4961,98
152,0.0138724343851,4962,98
153,0.0138706211001,4963,98
154,0.0138660529628,4964,98
155,0.0138617679477,4965,98
156,0.0138564864174,4966,98
157,0.0138502065092,4967,98
158,0.0138429235667,4968,98
159,0.0138346338645,4969,98
160,0.0138253346086,4970,98
161,0.0138150211424,4971,98
162,0.0138036925346,4972,98
163,0.0137913431972,4973,98
164,0.0137847866863,4974,98
165,0.013770901598,4975,98
166,0.0137559873983,4976,98
167,0.0137481447309,4977,98
168,0.0137230595574,4978,98
169,0.0137141812593,4979,98
170,0.0136859733611,4980,98
171,0.0136760482565,4981,98
172,0.0136554082856,4982,98
173,0.0136224702001,4983,98
174,0.0135991862044,4984,98
175,0.0135748339817,4985,98
176,0.0135494088754,4986,98
177,0.0135362930596,4987,98
178,0.0134953223169,4988,98
179,0.0134811215103,4989,98
180,0.0134519003332,4990,98
181,0.0134215811267,4991,98
182,0.0133901564404,4992,98
183,0.0133740268648,4993,98
184,0.0133239645511,4994,98
185,0.0132891833782,4995,98
186,0.0132532725111,4996,98
187,0.0132162217051,4997,98
188,0.0131780225784,4998,98
189,0.0131386686116,4999,98
190,0.013098154217,5000,98
191,0.0130774602294,5001,98
192,0.0130351884291,5002,98
193,0.0129917347804,5003,98
194,0.0129470946267,5004,98
195,0.0129012558609,5005,98
196,0.012854212895,5006,98
197,0.0128059564158,5007,98
198,0.0127564808354,5008,98
199,0.0127312820405,5009,98
200,0.0126538332552,5010,98
201,0.0126006482169,5011,98
202,0.0125462086871,5012,98
203,0.0124905100092,5013,98
204,0.0124335438013,5014,98
205,0.0123753007501,5015,98
206,0.0123157734051,5016,98
207,0.012254958041,5017,98
208,0.0122240632772,5018,98
209,0.012161295861,5019,98
210,0.0121294232085,5020,98
211,0.0120318280533,5021,98
212,0.011965113692,5022,98
213,0.0118970712647,5023,98
214,0.0118276914582,5024,98
215,0.0117569705471,5025,98
216,0.0116848992184,5026,98
217,0.0116114765406,5027,98
218,0.0115366950631,5028,98
219,0.0114605473354,5029,98
220,0.0113830333576,5030,98
221,0.0113041456789,5031,98
222,0.0112641863525,5032,98
223,0.0111422380432,5033,98
224,0.0111008984968,5034,98
225,0.0110171791166,5035,98
226,0.0109747992828,5036,98
227,0.0108890002593,5037,98
228,0.0107576968148,5038,98
229,0.0107132345438,5039,98
230,0.0105777690187,5040,98
231,0.010531919077,5041,98
232,0.010392296128,5042,98
233,0.0102974865586,5043,98
234,0.0102012995631,5044,98
235,0.0101037397981,5045,98
236,0.0100544476882,5046,98
237,0.0100021632388,3163,98
238,0.0100385565311,3164,98
239,0.0100743724033,3165,98
240,0.010109603405,3166,98
241,0.0101442504674,3167,98
242,0.0101783080027,3168,98
243,0.0101951146498,3169,98
244,0.0102446386591,3170,98
245,0.010276905261,3171,98
246,0.0103085692972,3172,98
247,0.0103396289051,3173,98
248,0.0103549296036,3174,98
249,0.0103700784966,3175,98
250,0.0104146068916,3176,98
251,0.0104291429743,3177,98
252,0.0104718282819,3178,98
253,0.0104995137081,3179,98
254,0.010526580736,3180,98
255,0.0105398828164,3181,98
256,0.0105660203844,3182,98
257,0.010591533035,3183,98
258,0.0106286397204,3184,98
259,0.0106406994164,3185,98
260,0.0106643494219,3186,98
261,0.0106986612082,3187,98
262,0.0107207605615,3188,98
263,0.0107315778732,3189,98
264,0.010742242448,3190,98
265,0.0107733076438,3191,98
266,0.0107932500541,3192,98
267,0.0108125824481,3193,98
268,0.0108313057572,3194,98
269,0.0108494246379,3195,98
270,0.0108669428155,3196,98
271,0.0108754774556,3197,98
272,0.0109001891688,3198,98
273,0.0109159266576,3199,98
274,0.0109310802072,3200,98
275,0.0109456572682,3201,98
276,0.0109527306631,3202,98
277,0.0109730986878,3203,98
278,0.0109796077013,3204,98
279,0.0109859760851,3205,98
280,0.0110042579472,3206,98
281,0.0110157672316,3207,98
282,0.0110267410055,3208,98
283,0.0110371867195,3209,98
284,0.0110471183434,3210,98
285,0.0110518913716,3211,98
286,0.0110654598102,3212,98
287,0.0110738901421,3213,98
288,0.011081838049,3214,98
289,0.0110893165693,3215,98
290,0.0110928816721,3216,98
291,0.0111028971151,3217,98
292,0.0111060133204,3218,98
293,0.0111119216308,3219,98
294,0.0111174089834,3220,98
295,0.0111224837601,3221,98
296,0.0111248707399,3222,98
297,0.011131442152,3223,98
298,0.0111353499815,3224,98
299,0.0111388945952,3225,98
300,0.0111420862377,3226,98
301,0.0111449379474,3227,98
302,0.0111474636942,3228,98
303,0.011149674654,3229,98
304,0.0111515838653,3230,98
305,0.0111524295062,3231,98
306,0.0111545473337,3232,98
307,0.0111556295305,3233,98
308,0.0111560747027,3234,98
309,0.0111567853019,3235,98
310,0.0111572667956,3236,98
311,0.011157527566,3237,98
312,0.0111575815827,3238,98
313,0.0111575415358,3239,98
314,0.0111571392044,3240,98
315,0.0111569203436,3241,98
316,0.0111560281366,3242,98
317,0.0111552551389,3243,98
318,0.011154351756,3244,98
319,0.0111538562924,3245,98
320,0.0111527824774,3246,98
321,0.0111509915441,3247,98
322,0.0111496951431,3248,98
323,0.0111490208656,3249,98
324,0.0111483279616,3250,98
325,0.0111461738124,3251,98
326,0.0111446809024,3252,98
327,0.0111431563273,3253,98
328,0.0111423861235,3254,98
329,0.0111400540918,3255,98
330,0.0111384941265,3256,98
331,0.0111369406804,3257,98
332,0.0111354049295,3258,98
333,0.0111338924617,3259,98
334,0.0111324144527,3260,98
335,0.0111316898838,3261,98
336,0.0111295860261,3262,98
337,0.0111289117485,3263,98
338,0.0111276069656,3264,98
339,0.0111263664439,3265,98
340,0.0111257722601,3266,98
341,0.0111241033301,3267,98
342,0.0111230909824,3268,98
343,0.0111226160079,3269,98
344,0.0111213270575,3270,98
345,0.0111205857247,3271,98
346,0.0111199403182,3272,98
347,0.0111193964258,3273,98
348,0.0111189549789,3274,98
349,0.0111186178401,3275,98
350,0.0111183878034,3276,98
351,0.0111183123663,3277,98
352,0.0111182425171,3278,98
353,0.0111182807013,3279,98
354,0.011118426919,3280,98
355,0.0111185405403,3281,98
356,0.0111190425232,3282,98
357,0.0111195072532,3283,98
358,0.0111197791994,3284,98
359,0.0111207468435,3285,98
360,0.0111211184412,3286,98
361,0.0111219352111,3287,98
362,0.011122844182,3288,98
363,0.0111243762076,3289,98
364,0.0111255021766,3290,98
365,0.0111260954291,3291,98
366,0.0111279860139,3292,98
367,0.011129331775,3293,98
368,0.0111307417974,3294,98
369,0.011131468229,3295,98
370,0.0111322049052,3296,98
371,0.011134494096,3297,98
372,0.0111360726878,3298,98
373,0.0111376829445,3299,98
374,0.0111393164843,3300,98
375,0.0111409667879,3301,98
376,0.0111426273361,3302,98
377,0.0111434571445,3303,98
378,0.0111459400505,3304,98
379,0.0111475763842,3305,98
380,0.0111483857036,3306,98
381,0.0111499791965,3307,98
382,0.0111522944644,3308,98
383,0.0111530404538,3309,98
384,0.0111544886604,3310,98
385,0.0111551871523,3311,98
386,0.0111571671441,3312,98
387,0.0111583778635,3313,98
388,0.0111594917253,3314,98
389,0.0111600095406,3315,98
390,0.0111609585583,3316,98
391,0.0111617827788,3317,98
392,0.0111627662554,3318,98
393,0.0111632375047,3319,98
394,0.0111634135246,3320,98
395,0.0111636882648,3321,98
396,0.0111636500806,3322,98
397,0.0111635588109,3323,98
398,0.0111629888415,3324,98
399,0.0111626954749,3325,98
400,0.0111623480916,3326,98
401,0.0111609688029,3327,98
402,0.0111597571522,3328,98
403,0.0111582996324,3329,98
404,0.0111565859988,3330,98
405,0.0111556304619,3331,98
406,0.0111535172909,3332,98
407,0.0111511219293,3333,98
408,0.0111469887197,3334,98
409,0.011145459488,3335,98
410,0.0111421747133,3336,98
411,0.0111366529018,3337,98
412,0.0111325616017,3338,98
413,0.0111281368881,3339,98
414,0.0111257946119,3340,98
415,0.0111208502203,3341,98
416,0.0111155500636,3342,98
417,0.0111127644777,3343,98
418,0.0111038545147,3344,98
419,0.0110974442214,3345,98
420,0.0110906492919,3346,98
421,0.0110834650695,3347,98
422,0.0110797239468,3348,98
423,0.0110678980127,3349,98
424,0.011059505865,3350,98
425,0.0110551556572,3351,98
426,0.0110414745286,3352,98
427,0.0110367033631,3353,98
428,0.0110217509791,3354,98
429,0.0110165504739,3355,98
430,0.0110058225691,3356,98
431,0.0109946569428,3357,98
432,0.0109889078885,3358,98
433,0.0109709948301,3359,98
434,0.010964798741,3360,98
435,0.0109455380589,3361,98
436,0.0109321307391,3362,98
437,0.0109252566472,3363,98
438,0.010911163874,3364,98
439,0.0108966128901,3365,98
440,0.0108739202842,3366,98
441,0.0108661251143,3367,98
442,0.0108420448378,3368,98
443,0.0108254114166,3369,98
444,0.0108169196174,3370,98
445,0.0107995877042,3371,98
446,0.0107817901298,3372,98
447,0.0107635287568,3373,98
448,0.0107448035851,3374,98
449,0.0107352677733,3375,98
450,0.0107059637085,3376,98
451,0.0106858490035,3377,98
452,0.0106652751565,3378,98
453,0.0106442421675,3379,98
454,0.0106227491051,3380,98
455,0.0106008024886,3381,98
456,0.0105784013867,3382,98
457,0.010555550456,3383,98
458,0.0105322478339,3384,98
459,0.0105204293504,3385,98
460,0.0105084991083,3386,98
461,0.0104720424861,3387,98
462,0.0104471873492,3388,98
463,0.010434595868,3389,98
464,0.0103961676359,3390,98
465,0.0103831421584,3391,98
466,0.0103434221819,3392,98
467,0.0103164091706,3393,98
468,0.0102889770642,3394,98
469,0.010261124,3395,98
470,0.0102328555658,3396,98
471,0.0102185672149,3397,98
472,0.0101896831766,3398,98
473,0.0101603930816,3399,98
474,0.0101306987926,3400,98
475,0.0101006031036,3401,98
476,0.0100701143965,3402,98
477,0.0100392308086,3403,98
478,0.0100079579279,3404,98
0,-0.0100306123495,4357,99
1,-0.0100819719955,4358,99
2,-0.0101330978796,4359,99
3,-0.0101839667186,4360,99
4,-0.0102345561609,4361,99
5,-0.0102848429233,4362,99
6,-0.0103098656982,4363,99
7,-0.0103844236583,4364,99
8,-0.0104090971872,4365,99
9,-0.0104825478047,4366,99
10,-0.0105310147628,4367,99
11,-0.0105790616944,4368,99
12,-0.0106029221788,4369,99
13,-0.0106266709045,4370,99
14,-0.010697228834,4371,99
15,-0.0107205128297,4372,99
16,-0.0107667148113,4373,99
17,-0.0108124194667,4374,99
18,-0.0108576137573,4375,99
19,-0.0109244212508,4376,99
20,-0.0109464228153,4377,99
21,-0.0110116032884,4378,99
22,-0.0110543603078,4379,99
23,-0.0110965492204,4380,99
24,-0.011138160713,4381,99
25,-0.011179190129,4382,99
26,-0.0112196300179,4383,99
27,-0.0112396273762,4384,99
28,-0.0112791741267,4385,99
29,-0.0112987225875,4386,99
30,-0.0113373668864,4387,99
31,-0.0113941952586,4388,99
32,-0.0114313196391,4389,99
33,-0.0114678340033,4390,99
34,-0.0114858625457,4391,99
35,-0.0115390317515,4392,99
36,-0.0115737160668,4393,99
37,-0.0116077940911,4394,99
38,-0.0116246053949,4395,99
39,-0.011657776311,4396,99
40,-0.0116903474554,4397,99
41,-0.0117380898446,4398,99
42,-0.0117537090555,4399,99
43,-0.0117845097557,4400,99
44,-0.0118147321045,4401,99
45,-0.0118443826213,4402,99
46,-0.0118589960039,4403,99
47,-0.0118878046051,4404,99
48,-0.0119160600007,4405,99
49,-0.0119574302807,4406,99
50,-0.0119843473658,4407,99
51,-0.0120107484981,4408,99
52,-0.0120366420597,4409,99
53,-0.0120620420203,4410,99
54,-0.0120869586244,4411,99
55,-0.012111405842,4412,99
56,-0.0121353957802,4413,99
57,-0.0121472235769,4414,99
58,-0.0121589424089,4415,99
59,-0.0121820596978,4416,99
60,-0.0122047625482,4417,99
61,-0.0122380703688,4418,99
62,-0.012259802781,4419,99
63,-0.0122811738402,4420,99
64,-0.0123022012413,4421,99
65,-0.0123229008168,4422,99
66,-0.0123432911932,4423,99
67,-0.0123533746228,4424,99
68,-0.0123832095414,4425,99
69,-0.0124027747661,4426,99
70,-0.0124124670401,4427,99
71,-0.0124412104487,4428,99
72,-0.0124506885186,4429,99
73,-0.0124695040286,4430,99
74,-0.0124881472439,4431,99
75,-0.0125066405162,4432,99
76,-0.0125158363953,4433,99
77,-0.0125432508066,4434,99
78,-0.0125614097342,4435,99
79,-0.0125794978812,4436,99
80,-0.012588522397,4437,99
81,-0.0126155465841,4438,99
82,-0.0126335490495,4439,99
83,-0.0126515645534,4440,99
84,-0.0126605834812,4441,99
85,-0.012687719427,4442,99
86,-0.012705902569,4443,99
87,-0.0127150304615,4444,99
88,-0.0127333719283,4445,99
89,-0.012751842849,4446,99
90,-0.0127704665065,4447,99
91,-0.012789266184,4448,99
92,-0.0128082605079,4449,99
93,-0.01282747183,4450,99
94,-0.0128469225019,4451,99
95,-0.0128567442298,4452,99
96,-0.0128866247833,4453,99
97,-0.0129069201648,4454,99
98,-0.0129171879962,4455,99
99,-0.0129379769787,4456,99
100,-0.0129591207951,4457,99
101,-0.0129806399345,4458,99
102,-0.0130136692896,4459,99
103,-0.0130248889327,4460,99
104,-0.0130362175405,4461,99
105,-0.0130708822981,4462,99
106,-0.0130826719105,4463,99
107,-0.0131066171452,4464,99
108,-0.013143485412,4465,99
109,-0.0131687251851,4466,99
110,-0.0131945153698,4467,99
111,-0.0132076228037,4468,99
112,-0.0132342716679,4469,99
113,-0.0132753616199,4470,99
114,-0.0133035248145,4471,99
115,-0.0133178438991,4472,99
116,-0.0133469644934,4473,99
117,-0.0133918821812,4474,99
118,-0.013407192193,4475,99
119,-0.0134383281693,4476,99
120,-0.0134701654315,4477,99
121,-0.0134863499552,4478,99
122,-0.0135359894484,4479,99
123,-0.0135700004175,4480,99
124,-0.0136047592387,4481,99
125,-0.0136224227026,4482,99
126,-0.0136765632778,4483,99
127,-0.0137136271223,4484,99
128,-0.0137324528769,4485,99
129,-0.0137901194394,4486,99
130,-0.0138295618817,4487,99
131,-0.0138698108494,4488,99
132,-0.0138902403414,4489,99
133,-0.0139317093417,4490,99
134,-0.0139739951119,4491,99
135,-0.0139954462647,4492,99
136,-0.0140610337257,4493,99
137,-0.014105791226,4494,99
138,-0.0141513729468,4495,99
139,-0.014197781682,4496,99
140,-0.0142450137064,4497,99
141,-0.0142930680886,4498,99
142,-0.014341942966,4499,99
143,-0.0143916346133,4500,99
144,-0.0144167840481,4501,99
145,-0.0144934449345,4502,99
146,-0.0145455524325,4503,99
147,-0.0145984524861,4504,99
148,-0.0146251963452,4505,99
149,-0.0146521348506,4506,99
150,-0.0147341061383,4507,99
151,-0.0147897042334,4508,99
152,-0.014817783609,4509,99
153,-0.0149031281471,4510,99
154,-0.0149609269574,4511,99
155,-0.0149900922552,4512,99
156,-0.0150786265731,4513,99
157,-0.0151384966448,4514,99
158,-0.0151990232989,4515,99
159,-0.0152601888403,4516,99
160,-0.0153219746426,4517,99
161,-0.0153530938551,4518,99
162,-0.0154157727957,4519,99
163,-0.0154790207744,4520,99
164,-0.0155428163707,4521,99
165,-0.0155749116093,4522,99
166,-0.0156719535589,4523,99
167,-0.0157372504473,4524,99
168,-0.0158029980958,4525,99
169,-0.0158360321075,4526,99
170,-0.015935741365,4527,99
171,-0.016002682969,4528,99
172,-0.0160362850875,4529,99
173,-0.0161375720054,4530,99
174,-0.0161714814603,4531,99
175,-0.0162395015359,4532,99
176,-0.01630776003,4533,99
177,-0.0164105333388,4534,99
178,-0.0164448786527,4535,99
179,-0.0164792593569,4536,99
180,-0.0165825802833,4537,99
181,-0.016651570797,4538,99
182,-0.0167206097394,4539,99
183,-0.0167896654457,4540,99
184,-0.0168586969376,4541,99
185,-0.016927678138,4542,99
186,-0.0169965699315,4543,99
187,-0.0170653387904,4544,99
188,-0.0170996654779,4545,99
189,-0.0172023642808,4546,99
190,-0.0172705519944,4547,99
191,-0.0173045471311,4548,99
192,-0.017406091094,4549,99
193,-0.0174397770315,4550,99
194,-0.0175068769604,4551,99
195,-0.0175402816385,4552,99
196,-0.0176067780703,4553,99
197,-0.0177056714892,4554,99
198,-0.0177709832788,4555,99
199,-0.0178357567638,4556,99
200,-0.0178999565542,4557,99
201,-0.0179635472596,4558,99
202,-0.017995102331,4559,99
203,-0.0180887542665,4560,99
204,-0.0181502979249,4561,99
205,-0.0182110890746,4562,99
206,-0.0182411912829,4563,99
207,-0.0183302704245,4564,99
208,-0.0183595400304,4565,99
209,-0.0184174198657,4566,99
210,-0.0184743888676,4567,99
211,-0.0185304153711,4568,99
212,-0.0185580644757,4569,99
213,-0.0186395049095,4570,99
214,-0.0186925008893,4571,99
215,-0.0187185965478,4572,99
216,-0.0187952313572,4573,99
217,-0.0188202112913,4574,99
218,-0.0188934039325,4575,99
219,-0.0189407039434,4576,99
220,-0.0189638938755,4577,99
221,-0.0190093331039,4578,99
222,-0.019053498283,4579,99
223,-0.0191172901541,4580,99
224,-0.0191378854215,4581,99
225,-0.0191581398249,4582,99
226,-0.0192168243229,4583,99
227,-0.0192541833967,4584,99
228,-0.0192901007831,4585,99
229,-0.0193245504051,4586,99
230,-0.0193575061858,4587,99
231,-0.0193734169006,4588,99
232,-0.0194188430905,4589,99
233,-0.0194332059473,4590,99
234,-0.0194607470185,4591,99
235,-0.0194866880774,4592,99
