,amplitude,tstep,vfp
0,-0.0100084021688,5199,99
1,-0.0100483167917,5200,99
2,-0.0100617036223,5201,99
3,-0.0100751314312,5202,99
4,-0.0101156542078,5203,99
5,-0.0101428674534,5204,99
6,-0.0101565336809,5205,99
7,-0.0101977633312,5206,99
8,-0.0102254403755,5207,99
9,-0.010239334777,5208,99
10,-0.0102812368423,5209,99
11,-0.0103093478829,5210,99
12,-0.0103234555572,5211,99
13,-0.0103659778833,5212,99
14,-0.0103944865987,5213,99
15,-0.0104231173173,5214,99
16,-0.0104374764487,5215,99
17,-0.0104662813246,5216,99
18,-0.0104951933026,5217,99
19,-0.0105096874759,5218,99
20,-0.0105533134192,5219,99
21,-0.010582507588,5220,99
22,-0.0106117809191,5221,99
23,-0.0106411259621,5222,99
24,-0.0106705334038,5223,99
25,-0.0106999948621,5224,99
26,-0.0107295000926,5225,99
27,-0.0107590416446,5226,99
28,-0.0107886083424,5227,99
29,-0.0108033986762,5228,99
30,-0.0108477771282,5229,99
31,-0.0108773568645,5230,99
32,-0.0108921406791,5231,99
33,-0.0109069189057,5232,99
34,-0.0109512042254,5233,99
35,-0.0109806712717,5234,99
36,-0.0110100787133,5235,99
37,-0.0110394125804,5236,99
38,-0.0110686607659,5237,99
39,-0.0110978102311,5238,99
40,-0.0111268460751,5239,99
41,-0.0111557543278,5240,99
42,-0.0111845228821,5241,99
43,-0.0112131349742,5242,99
44,-0.011241575703,5243,99
45,-0.0112698310986,5244,99
46,-0.0112838847563,5245,99
47,-0.0113118318841,5246,99
48,-0.0113395554945,5247,99
49,-0.0113533278927,5248,99
50,-0.0113942651078,5249,99
51,-0.0114212185144,5250,99
52,-0.0114345885813,5251,99
53,-0.0114742442966,5252,99
54,-0.0115002803504,5253,99
55,-0.0115259783342,5254,99
56,-0.0115386946127,5255,99
57,-0.0115638514981,5256,99
58,-0.0116008650512,5257,99
59,-0.0116130029783,5258,99
60,-0.0116487834603,5259,99
61,-0.011672087945,5260,99
62,-0.0116835692897,5261,99
63,-0.0117061799392,5262,99
64,-0.0117173045874,5263,99
65,-0.0117391804233,5264,99
66,-0.0117710316554,5265,99
67,-0.0117915989831,5266,99
68,-0.0118016758934,5267,99
69,-0.0118214068934,5268,99
70,-0.0118499146774,5269,99
71,-0.0118591180071,5270,99
72,-0.0118770636618,5271,99
73,-0.0118943816051,5272,99
74,-0.0119191454723,5273,99
75,-0.0119348233566,5274,99
76,-0.01194981765,5275,99
77,-0.0119570530951,5276,99
78,-0.0119641134515,5277,99
79,-0.0119842141867,5278,99
80,-0.0119905481115,5279,99
81,-0.0120084295049,5280,99
82,-0.0120140099898,5281,99
83,-0.0120295872912,5282,99
84,-0.0120343863964,5283,99
85,-0.0120475813746,5284,99
86,-0.0120553597808,5285,99
87,-0.0120623093098,5286,99
88,-0.0120684178546,5287,99
89,-0.012071153149,5288,99
90,-0.0120780700818,5289,99
91,-0.0120815932751,5290,99
92,-0.0120830237865,5291,99
93,-0.0120852189139,5292,99
94,-0.0120865181088,5293,99
95,-0.0120869129896,5294,99
96,-0.0120863933116,5295,99
97,-0.0120849553496,5296,99
98,-0.0120825907215,5297,99
99,-0.0120810577646,5298,99
100,-0.0120772896335,5299,99
101,-0.0120698688552,5300,99
102,-0.0120637370273,5301,99
103,-0.0120603144169,5302,99
104,-0.0120527520776,5303,99
105,-0.0120396101847,5304,99
106,-0.0120296487585,5305,99
107,-0.0120243066922,5306,99
108,-0.012012898922,5307,99
109,-0.012006833218,5308,99
110,-0.0119939791039,5309,99
111,-0.0119801601395,5310,99
112,-0.0119653772563,5311,99
113,-0.0119414012879,5312,99
114,-0.0119242174551,5313,99
115,-0.0119152674451,5314,99
116,-0.0118869887665,5315,99
117,-0.0118669513613,5316,99
118,-0.0118565782905,5317,99
119,-0.0118240509182,5318,99
120,-0.0118012009189,5319,99
121,-0.0117774261162,5320,99
122,-0.0117527339607,5321,99
123,-0.0117400465533,5322,99
124,-0.0117139937356,5323,99
125,-0.0116870440543,5324,99
126,-0.0116732362658,5325,99
127,-0.0116449594498,5326,99
128,-0.0116009125486,5327,99
129,-0.0115704750642,5328,99
130,-0.0115549378097,5329,99
131,-0.01150707528,5330,99
132,-0.0114741390571,5331,99
133,-0.0114403944463,5332,99
134,-0.0114058563486,5333,99
135,-0.0113705368713,5334,99
136,-0.0113344527781,5335,99
137,-0.0112976171076,5336,99
138,-0.0112789217383,5337,99
139,-0.0112409861758,5338,99
140,-0.0112023381516,5339,99
141,-0.0111827515066,5340,99
142,-0.0111229661852,5341,99
143,-0.0110822767019,5342,99
144,-0.0110616888851,5343,99
145,-0.0109989764169,5344,99
146,-0.0109563991427,5345,99
147,-0.0109348865226,5346,99
148,-0.0108914263546,5347,99
149,-0.0108473990113,5348,99
150,-0.0107803372666,5349,99
151,-0.0107577200979,5350,99
152,-0.0106891142204,5351,99
153,-0.0106660015881,5352,99
154,-0.0106427706778,5353,99
155,-0.0105723952875,5354,99
156,-0.0105249332264,5355,99
157,-0.0104770595208,5356,99
158,-0.0104287909344,5357,99
159,-0.0103801479563,5358,99
160,-0.0103311501443,5359,99
161,-0.0103065241128,5360,99
162,-0.0102570317686,5361,99
163,-0.010182227008,5362,99
164,-0.0101320082322,5363,99
165,-0.0100815342739,5364,99
166,-0.0100308246911,5365,99
167,-0.0100053874776,5366,99
0,-0.0100049013272,5191,100
1,-0.0100304130465,5192,100
2,-0.0100557571277,5193,100
3,-0.0100683635101,5194,100
4,-0.0101059144363,5195,100
5,-0.0101307146251,5196,100
6,-0.0101553164423,5197,100
7,-0.0101675409824,5198,100
8,-0.0101918336004,5199,100
9,-0.0102278655395,5200,100
10,-0.0102397641167,5201,100
11,-0.0102633880451,5202,100
12,-0.0102867698297,5203,100
13,-0.0103099066764,5204,100
14,-0.0103213787079,5205,100
15,-0.0103441299871,5206,100
16,-0.0103666130453,5207,100
17,-0.0103998221457,5208,100
18,-0.0104216048494,5209,100
19,-0.0104323849082,5210,100
20,-0.010453723371,5211,100
21,-0.0104747535661,5212,100
22,-0.0105057097971,5213,100
23,-0.0105259409174,5214,100
24,-0.0105458404869,5215,100
25,-0.0105556631461,5216,100
26,-0.0105750495568,5217,100
27,-0.0105846114457,5218,100
28,-0.0106127597392,5219,100
29,-0.0106310676783,5220,100
30,-0.0106400828809,5221,100
31,-0.0106665622443,5222,100
32,-0.0106837321073,5223,100
33,-0.0107005108148,5224,100
34,-0.0107168909162,5225,100
35,-0.0107249291614,5226,100
36,-0.0107484292239,5227,100
37,-0.0107560567558,5228,100
38,-0.0107783032581,5229,100
39,-0.0107926027849,5230,100
40,-0.0107995895669,5231,100
41,-0.0108064692467,5232,100
42,-0.0108264507726,5233,100
43,-0.0108328917995,5234,100
44,-0.0108515415341,5235,100
45,-0.0108575345948,5236,100
46,-0.0108748311177,5237,100
47,-0.0108857937157,5238,100
48,-0.0108962962404,5239,100
49,-0.0109013747424,5240,100
50,-0.0109159117565,5241,100
51,-0.0109250228852,5242,100
52,-0.0109336674213,5243,100
53,-0.0109418416396,5244,100
54,-0.0109457531944,5245,100
55,-0.0109532242641,5246,100
56,-0.0109602259472,5247,100
57,-0.0109667582437,5248,100
58,-0.0109698474407,5249,100
59,-0.0109784146771,5250,100
60,-0.0109810354188,5251,100
61,-0.0109881991521,5252,100
62,-0.0109923928976,5253,100
63,-0.0109961247072,5254,100
64,-0.0109978169203,5255,100
65,-0.0110022043809,5256,100
66,-0.0110034393147,5257,100
67,-0.0110064623877,5258,100
68,-0.011007915251,5259,100
69,-0.0110084749758,5260,100
70,-0.0110092591494,5261,100
71,-0.0110096037388,5262,100
72,-0.011009613052,5263,100
73,-0.0110089909285,5264,100
74,-0.011008570902,5265,100
75,-0.0110066719353,5266,100
76,-0.0110048847273,5267,100
77,-0.0110026858747,5268,100
78,-0.0110000800341,5269,100
79,-0.0109986271709,5270,100
80,-0.0109936716035,5271,100
81,-0.0109898801893,5272,100
82,-0.0109857060015,5273,100
83,-0.0109834773466,5274,100
84,-0.0109762297943,5275,100
85,-0.010973630473,5276,100
86,-0.0109681608155,5277,100
87,-0.0109623344615,5278,100
88,-0.0109561569989,5279,100
89,-0.0109496368095,5280,100
90,-0.010946248658,5281,100
91,-0.0109392236918,5282,100
92,-0.0109280720353,5283,100
93,-0.0109202386811,5284,100
94,-0.0109120914713,5285,100
95,-0.0109036369249,5286,100
96,-0.0108948796988,5287,100
97,-0.0108858281747,5288,100
98,-0.0108764860779,5289,100
99,-0.0108668589965,5290,100
100,-0.0108569543809,5291,100
101,-0.0108518982306,5292,100
102,-0.0108415856957,5293,100
103,-0.0108310058713,5294,100
104,-0.0108256181702,5295,100
105,-0.0108090704307,5296,100
106,-0.0108034275472,5297,100
107,-0.0107919564471,5298,100
108,-0.0107802394778,5299,100
109,-0.0107682812959,5300,100
110,-0.0107499007136,5301,100
111,-0.0107373548672,5302,100
112,-0.0107245827094,5303,100
113,-0.0107115842402,5304,100
114,-0.0106983631849,5305,100
115,-0.0106849214062,5306,100
116,-0.0106781199574,5307,100
117,-0.0106712635607,5308,100
118,-0.0106503721327,5309,100
119,-0.010636176914,5310,100
120,-0.010621773079,5311,100
121,-0.0106071596965,5312,100
122,-0.0105923358351,5313,100
123,-0.0105773052201,5314,100
124,-0.0105620669201,5315,100
125,-0.0105466227978,5316,100
126,-0.010530971922,5317,100
127,-0.0105151152238,5318,100
128,-0.0104990517721,5319,100
129,-0.0104827806354,5320,100
130,-0.0104745682329,5321,100
131,-0.0104579860345,5322,100
132,-0.0104411952198,5323,100
133,-0.0104241948575,5324,100
134,-0.0104156155139,5325,100
135,-0.010398298502,5326,100
136,-0.0103719234467,5327,100
137,-0.0103540699929,5328,100
138,-0.0103360004723,5329,100
139,-0.0103177111596,5330,100
140,-0.0102992011234,5331,100
141,-0.0102804675698,5332,100
142,-0.0102615095675,5333,100
143,-0.0102423243225,5334,100
144,-0.0102229081094,5335,100
145,-0.0102032590657,5336,100
146,-0.0101933469996,5337,100
147,-0.010173345916,5338,100
148,-0.0101531045511,5339,100
149,-0.0101326229051,5340,100
150,-0.0101222908124,5341,100
151,-0.0100909266621,5342,100
152,-0.0100697064772,5343,100
153,-0.0100482348353,5344,100
154,-0.0100374035537,5345,100
155,-0.0100045260042,5346,100
0,-0.0100078806281,5205,101
1,-0.0100294789299,5206,101
2,-0.0100512541831,5207,101
3,-0.0100732063875,5208,101
4,-0.0100953346118,5209,101
5,-0.0101064648479,5210,101
6,-0.0101401181892,5211,101
7,-0.0101514235139,5212,101
8,-0.0101855993271,5213,101
9,-0.0102085983381,5214,101
10,-0.0102201616392,5215,101
11,-0.0102434121072,5216,101
12,-0.0102668274194,5217,101
13,-0.0102904038504,5218,101
14,-0.0103141358122,5219,101
15,-0.0103380223736,5220,101
16,-0.0103620570153,5221,101
17,-0.0103741278872,5222,101
18,-0.0104105491191,5223,101
19,-0.0104227568954,5224,101
20,-0.0104595692828,5225,101
21,-0.0104842614383,5226,101
22,-0.0104966498911,5227,101
23,-0.0105215068907,5228,101
24,-0.010546464473,5229,101
25,-0.0105840731412,5230,101
26,-0.0105966506526,5231,101
27,-0.0106092477217,5232,101
28,-0.0106471404433,5233,101
29,-0.0106598008424,5234,101
30,-0.0106978574768,5235,101
31,-0.0107232769951,5236,101
32,-0.0107487225905,5237,101
33,-0.0107614519075,5238,101
34,-0.0107996501029,5239,101
35,-0.0108251096681,5240,101
36,-0.0108505496755,5241,101
37,-0.0108759598807,5242,101
38,-0.0109013263136,5243,101
39,-0.0109266377985,5244,101
40,-0.0109518822283,5245,101
41,-0.0109644746408,5246,101
42,-0.0109770447016,5247,101
43,-0.0110021131113,5248,101
44,-0.011027074419,5249,101
45,-0.0110519137233,5250,101
46,-0.0110889151692,5251,101
47,-0.011101173237,5252,101
48,-0.0111376959831,5253,101
49,-0.0111618172377,5254,101
50,-0.0111857391894,5255,101
51,-0.0112094487995,5256,101
52,-0.0112329302356,5257,101
53,-0.0112561695278,5258,101
54,-0.0112676946446,5259,101
55,-0.011290544644,5260,101
56,-0.0113131152466,5261,101
57,-0.0113353924826,5262,101
58,-0.0113573623821,5263,101
59,-0.0113790091127,5264,101
60,-0.0114003196359,5265,101
61,-0.0114212799817,5266,101
62,-0.0114418743178,5267,101
63,-0.0114520294592,5268,101
64,-0.0114819100127,5269,101
65,-0.0115013234317,5270,101
66,-0.011520315893,5271,101
67,-0.0115388743579,5272,101
68,-0.0115569839254,5273,101
69,-0.0115746315569,5274,101
70,-0.0115918060765,5275,101
71,-0.0116002112627,5276,101
72,-0.0116166491061,5277,101
73,-0.0116246799007,5278,101
74,-0.011647997424,5279,101
75,-0.0116555066779,5280,101
76,-0.011677226983,5281,101
77,-0.0116841923445,5282,101
78,-0.0117042465135,5283,101
79,-0.0117169013247,5284,101
80,-0.0117230098695,5285,101
81,-0.0117404479533,5286,101
82,-0.011745961383,5287,101
83,-0.0117615824565,5288,101
84,-0.0117712216452,5289,101
85,-0.0117802312598,5290,101
86,-0.0117886029184,5291,101
87,-0.0117925470695,5292,101
88,-0.0117999492213,5293,101
89,-0.0118034044281,5294,101
90,-0.0118098203093,5295,101
91,-0.0118181938305,5296,101
92,-0.0118206497282,5297,101
93,-0.0118269976228,5298,101
94,-0.0118303755298,5299,101
95,-0.0118330642581,5300,101
96,-0.0118350610137,5301,101
97,-0.0118363620713,5302,101
98,-0.0118369637057,5303,101
99,-0.0118370018899,5304,101
100,-0.0118360593915,5305,101
101,-0.0118345487863,5306,101
102,-0.0118335280567,5307,101
103,-0.0118323303759,5308,101
104,-0.0118276756257,5309,101
105,-0.0118257701397,5310,101
106,-0.0118189901114,5311,101
107,-0.0118163768202,5312,101
108,-0.0118074733764,5313,101
109,-0.0118006551638,5314,101
110,-0.0117969820276,5315,101
111,-0.0117891086265,5316,101
112,-0.0117759862915,5317,101
113,-0.0117712626234,5318,101
114,-0.0117612946779,5319,101
115,-0.0117450477555,5320,101
116,-0.0117333577946,5321,101
117,-0.0117272567004,5322,101
118,-0.0117145450786,5323,101
119,-0.0117011582479,5324,101
120,-0.0116871017963,5325,101
121,-0.0116798244417,5326,101
122,-0.011657002382,5327,101
123,-0.0116409696639,5328,101
124,-0.0116242896765,5329,101
125,-0.0116157084703,5330,101
126,-0.0115890149027,5331,101
127,-0.0115704331547,5332,101
128,-0.0115512311459,5333,101
129,-0.0115314172581,5334,101
130,-0.0115212826058,5335,101
131,-0.0114899799228,5336,101
132,-0.0114792492241,5337,101
133,-0.0114683723077,5338,101
134,-0.0114348717034,5339,101
135,-0.0114234182984,5340,101
136,-0.011388214305,5341,101
137,-0.0113640511408,5342,101
138,-0.0113393440843,5343,101
139,-0.0113141005859,5344,101
140,-0.0113012799993,5345,101
141,-0.0112620387226,5346,101
142,-0.0112352380529,5347,101
143,-0.0112216491252,5348,101
144,-0.0111940996721,5349,101
145,-0.0111518623307,5350,101
146,-0.0111375441775,5351,101
147,-0.0111085548997,5352,101
148,-0.0110791055486,5353,101
149,-0.0110492026433,5354,101
150,-0.0110188545659,5355,101
151,-0.0110035166144,5356,101
152,-0.0109568620101,5357,101
153,-0.0109252333641,5358,101
154,-0.0109092649072,5359,101
155,-0.0108770253137,5360,101
156,-0.0108279241249,5361,101
157,-0.0108113642782,5362,101
158,-0.0107611166313,5363,101
159,-0.010727156885,5364,101
160,-0.0107100410387,5365,101
161,-0.0106581635773,5366,101
162,-0.0106406975538,5367,101
163,-0.0106055121869,5368,101
164,-0.0105877947062,5369,101
165,-0.0105341505259,5370,101
166,-0.0105161098763,5371,101
167,-0.0104797929525,5372,101
168,-0.0104247462004,5373,101
169,-0.0104062473401,5374,101
170,-0.0103503167629,5375,101
171,-0.0103126754984,5376,101
172,-0.010293751955,5377,101
173,-0.0102365743369,5378,101
174,-0.0101981256157,5379,101
175,-0.0101788043976,5380,101
176,-0.0101399738342,5381,101
177,-0.0101008955389,5382,101
178,-0.0100812651217,5383,101
179,-0.0100220190361,5384,101
180,-0.0100021548569,5385,101
0,-0.0100045315921,5202,102
1,-0.0100267250091,5203,102
2,-0.0100487032905,5204,102
3,-0.0100704617798,5205,102
4,-0.0100812539458,5206,102
5,-0.0101132839918,5207,102
6,-0.0101343337446,5208,102
7,-0.010155133903,5209,102
8,-0.0101756760851,5210,102
9,-0.0101959547028,5211,102
10,-0.010215963237,5212,102
11,-0.010225863196,5213,102
12,-0.0102551402524,5214,102
13,-0.0102742966264,5215,102
14,-0.0102837653831,5216,102
15,-0.0102931577712,5217,102
16,-0.0103208841756,5218,102
17,-0.01032997109,5219,102
18,-0.0103567661718,5220,102
19,-0.0103742303327,5221,102
20,-0.0103913731873,5222,102
21,-0.0104081882164,5223,102
22,-0.0104246716946,5224,102
23,-0.0104408189654,5225,102
24,-0.0104566300288,5226,102
25,-0.0104644075036,5227,102
26,-0.0104797054082,5228,102
27,-0.0105020077899,5229,102
28,-0.0105164404958,5230,102
29,-0.0105235278606,5231,102
30,-0.0105305267498,5232,102
31,-0.0105509981513,5233,102
32,-0.0105642061681,5234,102
33,-0.0105770621449,5235,102
34,-0.0105895660818,5236,102
35,-0.0106017207727,5237,102
36,-0.0106076654047,5238,102
37,-0.0106249786913,5239,102
38,-0.0106360856444,5240,102
39,-0.0106468461454,5241,102
40,-0.0106520988047,5242,102
41,-0.0106673417613,5243,102
42,-0.0106770806015,5244,102
43,-0.0106864841655,5245,102
44,-0.0106910606846,5246,102
45,-0.0106999669224,5247,102
46,-0.0107085481286,5248,102
47,-0.0107168061659,5249,102
48,-0.0107247475535,5250,102
49,-0.0107323750854,5251,102
50,-0.0107396943495,5252,102
51,-0.0107432408258,5253,102
52,-0.0107534294948,5254,102
53,-0.0107598556206,5255,102
54,-0.0107629615813,5256,102
55,-0.0107718566433,5257,102
56,-0.0107774408534,5258,102
57,-0.0107827559114,5259,102
58,-0.0107878083363,5260,102
59,-0.0107902372256,5261,102
60,-0.0107949078083,5262,102
61,-0.0107971485704,5263,102
62,-0.0108014503494,5264,102
63,-0.0108074611053,5265,102
64,-0.0108111808077,5266,102
65,-0.0108146797866,5267,102
66,-0.0108163487166,5268,102
67,-0.0108195282519,5269,102
68,-0.0108225010335,5270,102
69,-0.0108265895396,5271,102
70,-0.0108290771022,5272,102
71,-0.0108302496374,5273,102
72,-0.0108324624598,5274,102
73,-0.0108354501426,5275,102
74,-0.0108363619074,5276,102
75,-0.0108380597085,5277,102
76,-0.0108395982534,5278,102
77,-0.0108409812674,5279,102
78,-0.0108422124758,5280,102
79,-0.010843298398,5281,102
80,-0.0108442390338,5282,102
81,-0.0108450409025,5283,102
82,-0.0108453910798,5284,102
83,-0.0108462367207,5285,102
84,-0.0108464537188,5286,102
85,-0.0108469091356,5287,102
86,-0.0108470544219,5288,102
87,-0.0108470739797,5289,102
88,-0.0108469687402,5290,102
89,-0.0108467424288,5291,102
90,-0.0108465831727,5292,102
91,-0.0108461715281,5293,102
92,-0.010845920071,5294,102
93,-0.0108449794352,5295,102
94,-0.0108441971242,5296,102
95,-0.01084375754,5297,102
96,-0.0108422478661,5298,102
97,-0.0108410799876,5299,102
98,-0.0108404457569,5300,102
99,-0.0108390757814,5301,102
100,-0.0108367633075,5302,102
101,-0.0108350403607,5303,102
102,-0.0108331693336,5304,102
103,-0.0108321765438,5305,102
104,-0.0108289644122,5306,102
105,-0.0108278123662,5307,102
106,-0.0108266184106,5308,102
107,-0.010822782293,5309,102
108,-0.0108200013638,5310,102
109,-0.01081854105,5311,102
110,-0.0108138760552,5312,102
111,-0.0108105167747,5313,102
112,-0.0108069498092,5314,102
113,-0.0108031677082,5315,102
114,-0.0107991620898,5316,102
115,-0.0107970740646,5317,102
116,-0.0107904458418,5318,102
117,-0.0107857184485,5319,102
118,-0.0107832588255,5320,102
119,-0.0107754813507,5321,102
120,-0.0107727525756,5322,102
121,-0.0107699520886,5323,102
122,-0.0107641378418,5324,102
123,-0.0107548572123,5325,102
124,-0.0107482848689,5326,102
125,-0.0107413930818,5327,102
126,-0.0107341734692,5328,102
127,-0.0107266139239,5329,102
128,-0.0107227051631,5330,102
129,-0.0107146203518,5331,102
130,-0.0107018090785,5332,102
131,-0.0106927994639,5333,102
132,-0.0106881493703,5334,102
133,-0.0106785586104,5335,102
134,-0.0106634190306,5336,102
135,-0.0106581682339,5337,102
136,-0.0106473509222,5338,102
137,-0.0106417844072,5339,102
138,-0.0106303254142,5340,102
139,-0.010612314567,5341,102
140,-0.0105997463688,5342,102
141,-0.0105932923034,5343,102
142,-0.0105732334778,5344,102
143,-0.0105663118884,5345,102
144,-0.0105448365211,5346,102
145,-0.010537436232,5347,102
146,-0.0105145052075,5348,102
147,-0.0104986019433,5349,102
148,-0.0104904631153,5350,102
149,-0.0104652913287,5351,102
150,-0.0104566467926,5352,102
151,-0.0104389777407,5353,102
152,-0.0104207927361,5354,102
153,-0.0104020917788,5355,102
154,-0.0103925466537,5356,102
155,-0.0103631317616,5357,102
156,-0.0103530669585,5358,102
157,-0.0103325434029,5359,102
158,-0.0103007741272,5360,102
159,-0.0102899214253,5361,102
160,-0.0102565791458,5362,102
161,-0.0102452030405,5363,102
162,-0.0102102896199,5364,102
163,-0.0101983910426,5365,102
164,-0.0101619167253,5366,102
165,-0.0101495003328,5367,102
166,-0.0101242801175,5368,102
167,-0.010098548606,5369,102
168,-0.0100723095238,5370,102
169,-0.0100455656648,5371,102
170,-0.0100320074707,5372,102
171,-0.0100045176223,5373,102
0,-0.010005492717,5187,103
1,-0.0100157577544,5188,103
2,-0.0100360633805,5189,103
3,-0.0100659606978,5190,103
4,-0.0100855203345,5191,103
5,-0.0101047838107,5192,103
6,-0.0101237548515,5193,103
7,-0.0101331304759,5194,103
8,-0.0101516637951,5195,103
9,-0.0101699084044,5196,103
10,-0.0101967398077,5197,103
