,amplitude,tstep,vfp
0,-0.0148478737101,5120,99
1,-0.014834549278,5121,99
2,-0.0147934155539,5122,99
3,-0.0147650288418,5123,99
4,-0.0147358747199,5124,99
5,-0.0147210108116,5125,99
6,-0.0147059569135,5126,99
7,-0.0146752791479,5127,99
8,-0.0146278468892,5128,99
9,-0.0145952859893,5129,99
10,-0.0145619800314,5130,99
11,-0.014545048587,5131,99
12,-0.0145106334239,5132,99
13,-0.0144576383755,5133,99
14,-0.0144214006141,5134,99
15,-0.0144030125812,5135,99
16,-0.0143467793241,5136,99
17,-0.0143084079027,5137,99
18,-0.0142693361267,5138,99
19,-0.0142495408654,5139,99
20,-0.0142094353214,5140,99
21,-0.0141891269013,5141,99
22,-0.0141480034217,5142,99
23,-0.0140850655735,5143,99
24,-0.014042285271,5144,99
25,-0.0140206506476,5145,99
26,-0.0139547837898,5146,99
27,-0.0139100831002,5147,99
28,-0.0138647593558,5148,99
29,-0.0138418665156,5149,99
30,-0.0137722808868,5150,99
31,-0.0137251457199,5151,99
32,-0.0137013578787,5152,99
33,-0.0136291300878,5153,99
34,-0.0135802691802,5154,99
35,-0.0135556301102,5155,99
36,-0.0135308532044,5156,99
37,-0.0134557131678,5157,99
38,-0.0134049560875,5158,99
39,-0.0133536802605,5159,99
40,-0.0133018968627,5160,99
41,-0.0132496180013,5161,99
42,-0.0132232960314,5162,99
43,-0.0131436148658,5163,99
44,-0.0130899129435,5164,99
45,-0.0130628915504,5165,99
46,-0.0130085162818,5166,99
47,-0.0129261435941,5167,99
48,-0.0128707047552,5168,99
49,-0.0128428330645,5169,99
50,-0.0127867916599,5170,99
51,-0.0127303618938,5171,99
52,-0.0126735568047,5172,99
53,-0.0126163894311,5173,99
54,-0.0125588700175,5174,99
55,-0.0125010116026,5175,99
56,-0.0124428262934,5176,99
57,-0.0123843280599,5177,99
58,-0.0123255262151,5178,99
59,-0.0122664356604,5179,99
60,-0.0122070675716,5180,99
61,-0.0121772838756,5181,99
62,-0.0120875500143,5182,99
63,-0.0120575167239,5183,99
64,-0.0119670731947,5184,99
65,-0.0119065064937,5185,99
66,-0.0118761463091,5186,99
67,-0.0118152806535,5187,99
68,-0.0117542324588,5188,99
69,-0.0117236441001,5189,99
70,-0.0116316368803,5190,99
71,-0.0115701146424,5191,99
72,-0.0115084592253,5192,99
73,-0.0114466836676,5193,99
74,-0.0113848000765,5194,99
75,-0.0113228214905,5195,99
76,-0.0112918000668,5196,99
77,-0.0111986286938,5197,99
78,-0.0111364386976,5198,99
79,-0.0111053260043,5199,99
80,-0.0110430726781,5200,99
81,-0.010980790481,5201,99
82,-0.0109184933826,5202,99
83,-0.0108561934903,5203,99
84,-0.0108250463381,5204,99
85,-0.0107316318899,5205,99
86,-0.0106693943962,5206,99
87,-0.0106072006747,5207,99
88,-0.010576124303,5208,99
89,-0.0105140190572,5209,99
90,-0.0104210022837,5210,99
91,-0.0103591009974,5211,99
92,-0.0102973012254,5212,99
93,-0.010235613212,5213,99
94,-0.0101740490645,5214,99
95,-0.0101433163509,5215,99
96,-0.010081956163,5216,99
97,-0.0100513314828,5217,99
98,-0.0100121106952,4885,99
99,-0.0100678997114,4886,99
100,-0.0101053528488,4887,99
101,-0.0101430043578,4888,99
102,-0.0101808458567,4889,99
103,-0.0102188680321,4890,99
104,-0.0102570625022,4891,99
105,-0.0102762216702,4892,99
106,-0.0103339320049,4893,99
107,-0.0103725912049,4894,99
108,-0.0104113873094,4895,99
109,-0.0104308342561,4896,99
110,-0.0104698203504,4897,99
111,-0.01050892286,4898,99
112,-0.010528515093,4899,99
113,-0.010587441735,4900,99
114,-0.0106268431991,4901,99
115,-0.0106663256884,4902,99
116,-0.010686095804,4903,99
117,-0.010745507665,4904,99
118,-0.0107653420419,4905,99
119,-0.0108249252662,4906,99
120,-0.0108647029847,4907,99
121,-0.0108846053481,4908,99
122,-0.0109244324267,4909,99
123,-0.010964281857,4910,99
124,-0.0110041471198,4911,99
125,-0.0110639594495,4912,99
126,-0.0110838962719,4913,99
127,-0.0111237643287,4914,99
128,-0.0111636184156,4915,99
129,-0.0111835394055,4916,99
130,-0.0112432604656,4917,99
131,-0.0112631516531,4918,99
132,-0.0113227646798,4919,99
133,-0.0113624474034,4920,99
134,-0.0113822687417,4921,99
135,-0.0114416433498,4922,99
136,-0.0114811435342,4923,99
137,-0.0115205701441,4924,99
138,-0.0115599157289,4925,99
139,-0.011579557322,4926,99
140,-0.0116383451968,4927,99
141,-0.0116774160415,4928,99
142,-0.0116969132796,4929,99
143,-0.0117163835093,4930,99
144,-0.0117552420124,4931,99
145,-0.0118133155629,4932,99
146,-0.0118518806994,4933,99
147,-0.0118903182447,4934,99
148,-0.0119286244735,4935,99
149,-0.0119667947292,4936,99
150,-0.0119858272374,4937,99
151,-0.0120427068323,4938,99
152,-0.0120804393664,4939,99
153,-0.0121180191636,4940,99
154,-0.0121367499232,4941,99
155,-0.0121926981956,4942,99
156,-0.0122112659737,4943,99
157,-0.0122482739389,4944,99
158,-0.0122667150572,4945,99
159,-0.0123217757791,4946,99
160,-0.0123582612723,4947,99
161,-0.0123945670202,4948,99
162,-0.012412651442,4949,99
163,-0.0124486805871,4950,99
164,-0.0125023731962,4951,99
165,-0.0125379301608,4952,99
166,-0.0125732934102,4953,99
167,-0.012608461082,4954,99
168,-0.012625971809,4955,99
169,-0.0126782041043,4956,99
170,-0.0127127747983,4957,99
171,-0.0127471433952,4958,99
172,-0.0127642517909,4959,99
173,-0.0127983149141,4960,99
174,-0.0128321731463,4961,99
175,-0.0128658255562,4962,99
176,-0.0128825744614,4963,99
177,-0.0129325091839,4964,99
178,-0.0129490504041,4965,99
179,-0.0129983620718,4966,99
180,-0.0130309751257,4967,99
181,-0.0130633804947,4968,99
182,-0.0130955772474,4969,99
183,-0.0131275644526,4970,99
184,-0.0131434807554,4971,99
185,-0.0131751568988,4972,99
186,-0.0132066253573,4973,99
187,-0.0132378870621,4974,99
188,-0.0132534410805,4975,99
189,-0.0132997948676,4976,99
190,-0.0133304409683,4977,99
191,-0.0133456876501,4978,99
192,-0.0133760292083,4979,99
193,-0.0134211638942,4980,99
194,-0.0134361088276,4981,99
195,-0.0134806446731,4982,99
196,-0.0134953912348,4983,99
197,-0.0135393366218,4984,99
198,-0.0135538876057,4985,99
199,-0.0135828442872,4986,99
200,-0.0136259198189,4987,99
201,-0.0136543987319,4988,99
202,-0.0136685669422,4989,99
203,-0.0136967645958,4990,99
204,-0.0137247750536,4991,99
205,-0.0137387104332,4992,99
206,-0.0137802436948,4993,99
207,-0.0138077056035,4994,99
208,-0.0138349868357,4995,99
209,-0.0138485599309,4996,99
210,-0.0138890128583,4997,99
211,-0.0139024090022,4998,99
212,-0.0139290699735,4999,99
213,-0.0139555558562,5000,99
214,-0.0139818694443,5001,99
215,-0.0140210175887,5002,99
216,-0.0140469027683,5003,99
217,-0.0140597810969,5004,99
218,-0.0140726175159,5005,99
219,-0.0140981646255,5006,99
220,-0.0141235422343,5007,99
221,-0.0141612924635,5008,99
222,-0.0141862491146,5009,99
223,-0.0142110381275,5010,99
224,-0.0142356595024,5011,99
225,-0.014260112308,5012,99
226,-0.0142843965441,5013,99
227,-0.0142964748666,5014,99
228,-0.0143324555829,5015,99
229,-0.0143562275916,5016,99
230,-0.0143798273057,5017,99
231,-0.0144032528624,5018,99
232,-0.0144148999825,5019,99
233,-0.0144380619749,5020,99
234,-0.0144495759159,5021,99
235,-0.014483846724,5022,99
236,-0.0145064657554,5023,99
237,-0.0145177058876,5024,99
238,-0.014551143162,5025,99
239,-0.014562192373,5026,99
240,-0.0145950503647,5027,99
241,-0.0146167073399,5028,99
242,-0.0146274603903,5029,99
243,-0.0146594094113,5030,99
244,-0.0146804442629,5031,99
245,-0.0147012630478,5032,99
246,-0.0147218620405,5033,99
247,-0.0147320767865,5034,99
248,-0.0147523349151,5035,99
249,-0.0147623755038,5036,99
250,-0.0147921424359,5037,99
251,-0.0148019427434,5038,99
252,-0.0148309674114,5039,99
253,-0.0148405134678,5040,99
254,-0.0148687567562,5041,99
255,-0.0148872472346,5042,99
256,-0.0149054583162,5043,99
257,-0.0149233825505,5044,99
258,-0.0149322357029,5045,99
259,-0.0149583425373,5046,99
260,-0.0149753624573,5047,99
261,-0.0149920638651,5048,99
262,-0.0150084393099,5049,99
263,-0.0150165027007,5050,99
264,-0.0150244813412,5051,99
265,-0.0150401787832,5052,99
266,-0.0150630632415,5053,99
267,-0.0150778647512,5054,99
268,-0.015085125342,5055,99
269,-0.0151063334197,5056,99
270,-0.015119981952,5057,99
271,-0.0151332272217,5058,99
272,-0.0151460589841,5059,99
273,-0.0151523174718,5060,99
274,-0.015170446597,5061,99
275,-0.0151762701571,5062,99
276,-0.0151930637658,5063,99
277,-0.0152036854997,5064,99
278,-0.0152088198811,5065,99
279,-0.0152138350531,5066,99
280,-0.0152281513438,5067,99
281,-0.0152326766402,5068,99
282,-0.0152454925701,5069,99
283,-0.0152533920482,5070,99
284,-0.0152607634664,5071,99
285,-0.0152675984427,5072,99
286,-0.0152708115056,5073,99
287,-0.0152796162292,5074,99
288,-0.0152847785503,5075,99
289,-0.0152893653139,5076,99
290,-0.0152914393693,5077,99
291,-0.0152967711911,5078,99
292,-0.0152995707467,5079,99
293,-0.0153007404879,5080,99
294,-0.0153017556295,5081,99
295,-0.0153033183888,5082,99
296,-0.0153044750914,5083,99
297,-0.0153044415638,5084,99
298,-0.015303755179,5085,99
299,-0.015302406624,5086,99
300,-0.0153003884479,5087,99
301,-0.0152976932004,5088,99
302,-0.0152943124995,5089,99
303,-0.0152923632413,5090,99
304,-0.0152854667976,5091,99
305,-0.0152799868956,5092,99
306,-0.0152737936005,5093,99
307,-0.0152704278007,5094,99
308,-0.0152631532401,5095,99
309,-0.0152551513165,5096,99
310,-0.0152464145795,5097,99
311,-0.0152417691424,5098,99
312,-0.0152319213375,5099,99
313,-0.015215748921,5100,99
314,-0.0152040263638,5101,99
315,-0.01519154571,5102,99
316,-0.0151783041656,5103,99
317,-0.0151642970741,5104,99
318,-0.0151495225728,5105,99
319,-0.0151339769363,5106,99
320,-0.0151259135455,5107,99
321,-0.0151092056185,5108,99
322,-0.0150826862082,5109,99
323,-0.0150734568015,5110,99
324,-0.0150640327483,5111,99
325,-0.0150345889851,5112,99
326,-0.0150243835524,5113,99
327,-0.0149925956503,5114,99
328,-0.0149704264477,5115,99
329,-0.0149590484798,5116,99
330,-0.0149237439036,5117,99
331,-0.0148992324248,5118,99
332,-0.014873941429,5119,99
0,-0.0100182425231,4871,100
1,-0.0100295124575,4872,100
2,-0.010063637048,4873,100
3,-0.0100751165301,4874,100
4,-0.0101098651066,4875,100
5,-0.0101332906634,4876,100
6,-0.0101450802758,4877,100
7,-0.0101807545871,4878,100
8,-0.0102047901601,4879,100
9,-0.010216884315,4880,100
10,-0.0102534648031,4881,100
11,-0.0102780982852,4882,100
12,-0.0102904886007,4883,100
13,-0.0103154135868,4884,100
14,-0.0103405304253,4885,100
15,-0.0103658344597,4886,100
16,-0.010378556326,4887,100
17,-0.0104041397572,4888,100
18,-0.0104428576306,4889,100
19,-0.0104558514431,4890,100
20,-0.0104951038957,4891,100
21,-0.0105214864016,4892,100
22,-0.0105480412021,4893,100
23,-0.0105747617781,4894,100
24,-0.0106016462669,4895,100
25,-0.0106151476502,4896,100
26,-0.0106422724202,4897,100
27,-0.0106695517898,4898,100
28,-0.0106969857588,4899,100
29,-0.0107245687395,4900,100
30,-0.0107523007318,4901,100
31,-0.0107662193477,4902,100
32,-0.0108081856743,4903,100
33,-0.0108363367617,4904,100
34,-0.0108646228909,4905,100
35,-0.0108788143843,4906,100
36,-0.0109215844423,4907,100
37,-0.0109502542764,4908,100
38,-0.0109790470451,4909,100
39,-0.0110079599544,4910,100
40,-0.0110369892791,4911,100
41,-0.0110515458509,4912,100
42,-0.0110807456076,4913,100
43,-0.0111100552604,4914,100
44,-0.0111394710839,4915,100
45,-0.0111689930782,4916,100
46,-0.0111986175179,4917,100
47,-0.0112283416092,4918,100
48,-0.0112581625581,4919,100
49,-0.0112880812958,4920,100
50,-0.0113180931658,4921,100
51,-0.0113481963053,4922,100
52,-0.0113632809371,4923,100
53,-0.0114086680114,4924,100
54,-0.011439033784,4925,100
55,-0.0114694824442,4926,100
56,-0.0115000149235,4927,100
57,-0.0115306265652,4928,100
58,-0.0115459617227,4929,100
59,-0.0115613183007,4930,100
60,-0.0116074988618,4931,100
61,-0.0116383824497,4932,100
62,-0.0116693386808,4933,100
63,-0.0116848442703,4934,100
64,-0.0117159076035,4935,100
65,-0.0117626320571,4936,100
66,-0.0117938686162,4937,100
67,-0.0118095111102,4938,100
68,-0.0118565363809,4939,100
69,-0.0118879657239,4940,100
70,-0.0119194574654,4941,100
71,-0.0119352275506,4942,100
72,-0.0119826206937,4943,100
73,-0.0119984475896,4944,100
74,-0.0120301432908,4945,100
75,-0.0120460130274,4946,100
76,-0.0120937013999,4947,100
77,-0.0121255563572,4948,100
78,-0.0121574606746,4949,100
79,-0.0121734319255,4950,100
80,-0.0122054060921,4951,100
81,-0.0122534511611,4952,100
82,-0.0122855324298,4953,100
83,-0.0123176500201,4954,100
84,-0.012349803932,4955,100
85,-0.0123658943921,4956,100
86,-0.0124142039567,4957,100
87,-0.0124464444816,4958,100
88,-0.0124625749886,4959,100
89,-0.0124948499724,4960,100
90,-0.0125271407887,4961,100
91,-0.0125594465062,4962,100
92,-0.0125917606056,4963,100
93,-0.0126240802929,4964,100
94,-0.0126402424648,4965,100
95,-0.0126887196675,4966,100
96,-0.0127210291103,4967,100
97,-0.0127533245832,4968,100
98,-0.0127856014296,4969,100
99,-0.0128178540617,4970,100
100,-0.0128500759602,4971,100
101,-0.0128661729395,4972,100
102,-0.0129144052044,4973,100
103,-0.0129304584116,4974,100
104,-0.0129464985803,4975,100
105,-0.0129785360768,4976,100
106,-0.0130264740437,4977,100
107,-0.0130583420396,4978,100
108,-0.0130742462352,4979,100
109,-0.0131059894338,4980,100
110,-0.0131534300745,4981,100
111,-0.0131849274039,4982,100
112,-0.013216311112,4983,100
113,-0.0132475728169,4984,100
114,-0.0132787050679,4985,100
115,-0.0133096966892,4986,100
116,-0.013340539299,4987,100
117,-0.0133712245151,4988,100
118,-0.0133865047246,4989,100
119,-0.0134169347584,4990,100
120,-0.0134471803904,4991,100
121,-0.0134622324258,4992,100
122,-0.0134921874851,4993,100
123,-0.0135367279872,4994,100
124,-0.013551466167,4995,100
125,-0.0135953314602,4996,100
126,-0.0136242732406,4997,100
127,-0.0136386491358,4998,100
128,-0.0136813847348,4999,100
129,-0.0137095339596,5000,100
130,-0.0137373972684,5001,100
131,-0.0137512190267,5002,100
132,-0.0137786353007,5003,100
133,-0.0138057395816,5004,100
134,-0.0138191729784,5005,100
135,-0.0138589730486,5006,100
136,-0.013885079883,5007,100
137,-0.0138980010524,5008,100
138,-0.0139235751703,5009,100
139,-0.0139612397179,5010,100
140,-0.0139858732,5011,100
141,-0.0140101118013,5012,100
142,-0.01403394714,5013,100
143,-0.0140573680401,5014,100
144,-0.0140803679824,5015,100
145,-0.0141029367223,5016,100
146,-0.0141250649467,5017,100
147,-0.0141467442736,5018,100
148,-0.014157413505,5019,100
149,-0.0141784017906,5020,100
150,-0.0141887208447,5021,100
151,-0.0142189627513,5022,100
152,-0.0142385168001,5023,100
153,-0.0142575791106,5024,100
154,-0.0142761413008,5025,100
155,-0.0142941968516,5026,100
156,-0.0143117401749,5027,100
157,-0.0143287638202,5028,100
158,-0.0143370786682,5029,100
159,-0.0143612306565,5030,100
160,-0.0143766626716,5031,100
161,-0.0143915545195,5032,100
162,-0.0143987964839,5033,100
163,-0.0144128696993,5034,100
164,-0.0144263925031,5035,100
165,-0.01443294622,5036,100
166,-0.0144456364214,5037,100
167,-0.0144636239856,5038,100
168,-0.0144749134779,5039,100
169,-0.014485636726,5040,100
170,-0.01449579373,5041,100
171,-0.0145053844899,5042,100
172,-0.0145144062117,5043,100
173,-0.014522857964,5044,100
174,-0.014530739747,5045,100
175,-0.0145380515605,5046,100
176,-0.0145414937288,5047,100
177,-0.014550969936,5048,100
178,-0.0145565764979,5049,100
179,-0.0145591674373,5050,100
180,-0.014563924633,5051,100
181,-0.0145681183785,5052,100
182,-0.0145717496052,5053,100
183,-0.0145748220384,5054,100
184,-0.0145773366094,5055,100
185,-0.0145792979747,5056,100
186,-0.0145800719038,5057,100
187,-0.0145812062547,5058,100
188,-0.0145818861201,5059,100
189,-0.0145816616714,5060,100
190,-0.0145809007809,5061,100
191,-0.0145796071738,5062,100
192,-0.0145787615329,5063,100
193,-0.0145766763017,5064,100
194,-0.0145740685984,5065,100
195,-0.0145725701004,5066,100
196,-0.0145673025399,5067,100
197,-0.0145652918145,5068,100
198,-0.0145585061982,5069,100
199,-0.0145533569157,5070,100
200,-0.0145477149636,5071,100
201,-0.0145447086543,5072,100
202,-0.0145383328199,5073,100
203,-0.0145314754918,5074,100
204,-0.0145202977583,5075,100
205,-0.0145122585818,5076,100
206,-0.014503756538,5077,100
207,-0.0144947925583,5078,100
208,-0.0144853740931,5079,100
209,-0.0144804958254,5080,100
210,-0.0144755048677,5081,100
211,-0.0144651904702,5082,100
212,-0.0144488913938,5083,100
213,-0.0144432391971,5084,100
214,-0.0144256409258,5085,100
215,-0.0144133726135,5086,100
216,-0.0144070796669,5087,100
217,-0.0143941780552,5088,100
218,-0.0143740437925,5089,100
219,-0.0143601056188,5090,100
220,-0.0143529828638,5091,100
221,-0.0143310017884,5092,100
222,-0.0143158426508,5093,100
223,-0.0143002821133,5094,100
224,-0.0142923519015,5095,100
225,-0.0142761943862,5096,100
226,-0.0142679670826,5097,100
227,-0.0142512181774,5098,100
228,-0.0142253590748,5099,100
229,-0.0142165431753,5100,100
230,-0.014198621735,5101,100
231,-0.0141803110018,5102,100
232,-0.0141521189362,5103,100
233,-0.014142527245,5104,100
234,-0.0141230560839,5105,100
235,-0.0140931261703,5106,100
236,-0.0140726910904,5107,100
237,-0.0140518723056,5108,100
238,-0.0140306660905,5109,100
239,-0.0140199176967,5110,100
240,-0.013998134993,5111,100
241,-0.0139759629965,5112,100
242,-0.0139647321776,5113,100
243,-0.0139304604381,5114,100
244,-0.0139071270823,5115,100
245,-0.0138834044337,5116,100
246,-0.0138592915609,5117,100
247,-0.0138347875327,5118,100
248,-0.0138223879039,5119,100
249,-0.0137845985591,5120,100
250,-0.0137589136139,5121,100
251,-0.0137328309938,5122,100
252,-0.0137196406722,5123,100
253,-0.0136794717982,5124,100
254,-0.0136658819392,5125,100
255,-0.01365219336,5126,100
256,-0.0136105213314,5127,100
257,-0.0135822379962,5128,100
258,-0.0135535495356,5129,100
259,-0.013524456881,5130,100
260,-0.0134949591011,5131,100
261,-0.0134800579399,5132,100
262,-0.0134347453713,5133,100
263,-0.0134040284902,5134,100
264,-0.0133729046211,5135,100
265,-0.0133571894839,5136,100
266,-0.0133254546672,5137,100
267,-0.0132933128625,5138,100
268,-0.0132443383336,5139,100
269,-0.0132278101519,5140,100
270,-0.0131944501773,5141,100
271,-0.01316068694,5142,100
272,-0.01312652044,5143,100
273,-0.0131092872471,5144,100
274,-0.0130569869652,5145,100
275,-0.0130216237158,5146,100
276,-0.0129858646542,5147,100
277,-0.0129497144371,5148,100
278,-0.0129131739959,5149,100
279,-0.0128762479872,5150,100
280,-0.0128576410934,5151,100
281,-0.0128012504429,5152,100
282,-0.0127631863579,5153,100
283,-0.0127247534692,5154,100
284,-0.0127053987235,5155,100
285,-0.0126664172858,5156,100
286,-0.0126270782202,5157,100
287,-0.0125873843208,5158,100
288,-0.0125473402441,5159,100
289,-0.0125069562346,5160,100
290,-0.012466236949,5161,100
291,-0.0124457525089,5162,100
292,-0.0123838149011,5163,100
293,-0.0123630100861,5164,100
294,-0.0123001271859,5165,100
295,-0.0122578274459,5166,100
296,-0.0122365662828,5167,100
297,-0.0121938269585,5168,100
298,-0.0121291894466,5169,100
299,-0.0120857581496,5170,100
300,-0.012063943781,5171,100
301,-0.0120201213285,5172,100
302,-0.0119981141761,5173,100
303,-0.0119539191946,5174,100
304,-0.0118871843442,5175,100
305,-0.0118424110115,5176,100
306,-0.0117974225432,5177,100
307,-0.0117522282526,5178,100
308,-0.011706834659,5179,100
309,-0.0116612520069,5180,100
310,-0.0116154905409,5181,100
311,-0.0115695586428,5182,100
312,-0.0115465298295,5183,100
313,-0.0114772133529,5184,100
314,-0.0114540345967,5185,100
315,-0.0114075727761,5186,100
316,-0.011384290643,5187,100
317,-0.0113376360387,5188,100
318,-0.0112674320117,5189,100
319,-0.0112204942852,5190,100
320,-0.0111734606326,5191,100
321,-0.0111263375729,5192,100
322,-0.0110791316256,5193,100
323,-0.0110555002466,5194,100
324,-0.0110081862658,5195,100
325,-0.0109370974824,5196,100
326,-0.0108896391466,5197,100
327,-0.0108421342447,5198,100
328,-0.0107945911586,5199,100
329,-0.0107708061114,5200,100
330,-0.0107232155278,5201,100
331,-0.0106755997986,5202,100
332,-0.0106279673055,5203,100
333,-0.0105803199112,5204,100
334,-0.0105326632038,5205,100
335,-0.0104850018397,5206,100
336,-0.0104611711577,5207,100
337,-0.0103896846995,5208,100
338,-0.0103420354426,5209,100
339,-0.0102943982929,5210,100
340,-0.0102467760444,5211,100
341,-0.0101991677657,5212,100
342,-0.0101515799761,5213,100
343,-0.0101277930662,5214,100
344,-0.0100802360103,5215,100
345,-0.010032701306,5216,100
346,-0.0100089432672,5217,100
0,-0.010026848875,4882,101
1,-0.0100469626486,4883,101
2,-0.0100874081254,4884,101
3,-0.0101077370346,4885,101
4,-0.0101485978812,4886,101
5,-0.0102103687823,4887,101
6,-0.0102518498898,4888,101
