,amplitude,tstep,vfp
0,-0.0100085884333,5037,99
1,-0.0100345015526,5038,99
2,-0.0100517543033,5039,99
3,-0.0100689893588,5040,99
4,-0.0100862048566,5041,99
5,-0.0101034007967,5042,99
6,-0.0101205762476,5043,99
7,-0.0101377312094,5044,99
8,-0.0101548647508,5045,99
9,-0.0101719778031,5046,99
10,-0.0101890685037,5047,99
11,-0.0102061359212,5048,99
12,-0.0102231809869,5049,99
13,-0.0102316932753,5050,99
14,-0.0102487010881,5051,99
15,-0.0102656846866,5052,99
16,-0.0102826412767,5053,99
17,-0.0102995727211,5054,99
18,-0.0103164771572,5055,99
19,-0.0103249195963,5056,99
20,-0.0103417830542,5057,99
21,-0.0103670246899,5058,99
22,-0.0103838164359,5059,99
23,-0.0104005783796,5060,99
24,-0.0104173095897,5061,99
25,-0.0104340100661,5062,99
26,-0.0104506788775,5063,99
27,-0.010467316024,5064,99
28,-0.01047562249,5065,99
29,-0.0104922102764,5066,99
30,-0.0105004915968,5067,99
31,-0.0105252861977,5068,99
32,-0.0105335330591,5069,99
33,-0.0105582214892,5070,99
34,-0.0105746369809,5071,99
35,-0.010591016151,5072,99
36,-0.0106073599309,5073,99
37,-0.0106236673892,5074,99
38,-0.0106399375945,5075,99
39,-0.010656170547,5076,99
40,-0.0106723662466,5077,99
41,-0.0106804501265,5078,99
42,-0.0107046440244,5079,99
43,-0.0107126897201,5080,99
44,-0.0107287522405,5081,99
45,-0.0107447765768,5082,99
46,-0.0107607636601,5083,99
47,-0.0107767116278,5084,99
48,-0.0107926223427,5085,99
49,-0.0108084958047,5086,99
50,-0.0108164185658,5087,99
51,-0.0108401281759,5088,99
52,-0.0108558889478,5089,99
53,-0.0108716133982,5090,99
54,-0.0108873024583,5091,99
55,-0.0109029561281,5092,99
56,-0.0109107699245,5093,99
57,-0.0109341582283,5094,99
58,-0.0109419375658,5095,99
59,-0.0109497094527,5096,99
60,-0.0109729757532,5097,99
61,-0.0109807150438,5098,99
62,-0.0109961712733,5099,99
63,-0.0110193006694,5100,99
64,-0.0110346870497,5101,99
65,-0.0110500454903,5102,99
66,-0.011057715863,5103,99
67,-0.0110806906596,5104,99
68,-0.011095979251,5105,99
69,-0.0111112473533,5106,99
70,-0.0111264968291,5107,99
71,-0.0111341159791,5108,99
72,-0.0111493431032,5109,99
73,-0.0111645543948,5110,99
74,-0.0111797545105,5111,99
75,-0.0111873503774,5112,99
76,-0.0112025365233,5113,99
77,-0.0112253045663,5114,99
78,-0.0112404776737,5115,99
79,-0.0112556489184,5116,99
80,-0.0112632364035,5117,99
81,-0.0112784123048,5118,99
82,-0.0113011877984,5119,99
83,-0.0113163823262,5120,99
84,-0.011323983781,5121,99
85,-0.0113468104973,5122,99
86,-0.0113620487973,5123,99
87,-0.0113696753979,5124,99
88,-0.0113849444315,5125,99
89,-0.0113925887272,5126,99
90,-0.011407895945,5127,99
91,-0.0114232320338,5128,99
92,-0.011438600719,5129,99
93,-0.0114540047944,5130,99
94,-0.0114771807566,5131,99
95,-0.0114849274978,5132,99
96,-0.0115082329139,5133,99
97,-0.0115238288417,5134,99
98,-0.0115394769236,5135,99
99,-0.0115551799536,5136,99
100,-0.0115630533546,5137,99
101,-0.0115788429976,5138,99
102,-0.0116026448086,5139,99
103,-0.0116106104106,5140,99
104,-0.0116185937077,5141,99
105,-0.0116346115246,5142,99
106,-0.0116587737575,5143,99
107,-0.0116749759763,5144,99
108,-0.0116912573576,5145,99
109,-0.0116994269192,5146,99
110,-0.011724062264,5147,99
111,-0.0117405932397,5148,99
112,-0.0117572117597,5149,99
113,-0.011773920618,5150,99
114,-0.0117907207459,5151,99
115,-0.0118076149374,5152,99
116,-0.0118246059865,5153,99
117,-0.0118416938931,5154,99
118,-0.0118502750993,5155,99
119,-0.0118588814512,5156,99
120,-0.0118761686608,5157,99
121,-0.0119022913277,5158,99
122,-0.0119198355824,5159,99
123,-0.0119374841452,5160,99
124,-0.0119552370161,5161,99
125,-0.0119730951265,5162,99
126,-0.0119910594076,5163,99
127,-0.0120000820607,5164,99
128,-0.0120273083448,5165,99
129,-0.0120455920696,5166,99
130,-0.0120639810339,5167,99
131,-0.0120824733749,5168,99
132,-0.0121010700241,5169,99
133,-0.0121197691187,5170,99
134,-0.0121291577816,5171,99
135,-0.0121480096132,5172,99
136,-0.0121669601649,5173,99
137,-0.0121860075742,5174,99
138,-0.0122051509097,5175,99
139,-0.0122243883088,5176,99
140,-0.0122437160462,5177,99
141,-0.0122631322592,5178,99
142,-0.0122728720307,5179,99
143,-0.0123022142798,5180,99
144,-0.0123218754306,5181,99
145,-0.0123416110873,5182,99
146,-0.0123614175245,5183,99
147,-0.0123713454232,5184,99
148,-0.0123912496492,5185,99
149,-0.0124112144113,5186,99
150,-0.01243123319,5187,99
151,-0.0124513022602,5188,99
152,-0.0124714160338,5189,99
153,-0.0124915698543,5190,99
154,-0.0125117581338,5191,99
155,-0.0125218629837,5192,99
156,-0.0125420894474,5193,99
157,-0.0125724626705,5194,99
158,-0.0125927235931,5195,99
159,-0.0126129873097,5196,99
160,-0.0126332454383,5197,99
161,-0.0126534914598,5198,99
162,-0.0126737188548,5199,99
163,-0.0126939192414,5200,99
164,-0.0127040073276,5201,99
165,-0.0127241527662,5202,99
166,-0.0127442516387,5203,99
167,-0.0127542810515,5204,99
168,-0.0127842761576,5205,99
169,-0.0128041850403,5206,99
170,-0.0128240138292,5207,99
171,-0.0128437532112,5208,99
172,-0.0128535870463,5209,99
173,-0.012882928364,5210,99
174,-0.0129023455083,5211,99
175,-0.0129216378555,5212,99
176,-0.0129407942295,5213,99
177,-0.0129598053172,5214,99
178,-0.0129786618054,5215,99
179,-0.0129880290478,5216,99
180,-0.0129973543808,5217,99
181,-0.01302506309,5218,99
182,-0.0130433002487,5219,99
183,-0.0130613390356,5220,99
184,-0.0130791692063,5221,99
185,-0.0130967814475,5222,99
186,-0.0131141645834,5223,99
187,-0.0131313083693,5224,99
188,-0.0131482025608,5225,99
189,-0.0131648378447,5226,99
190,-0.013181203045,5227,99
191,-0.0131972897798,5228,99
192,-0.0132052246481,5229,99
193,-0.0132285859436,5230,99
194,-0.0132362199947,5231,99
195,-0.0132512506098,5232,99
196,-0.0132659571245,5233,99
197,-0.0132803283632,5234,99
198,-0.0132873859257,5235,99
199,-0.0133012384176,5236,99
200,-0.0133147342131,5237,99
201,-0.0133278602734,5238,99
202,-0.0133468406275,5239,99
203,-0.0133529733866,5240,99
204,-0.0133707728237,5241,99
205,-0.0133821303025,5242,99
206,-0.0133930677548,5243,99
207,-0.0134035786614,5244,99
208,-0.0134086720645,5245,99
209,-0.01341852732,5246,99
210,-0.0134232873097,5247,99
211,-0.0134368855506,5248,99
212,-0.0134453726932,5249,99
213,-0.0134494397789,5250,99
214,-0.0134609220549,5251,99
215,-0.0134679703042,5252,99
216,-0.0134745240211,5253,99
217,-0.0134776132181,5254,99
218,-0.0134861199185,5255,99
219,-0.0134911481291,5256,99
220,-0.013495654799,5257,99
221,-0.0134996334091,5258,99
222,-0.01350307744,5259,99
223,-0.0135059831664,5260,99
224,-0.0135072311386,5261,99
225,-0.0135093163699,5262,99
226,-0.0135108483955,5263,99
227,-0.0135114053264,5264,99
228,-0.0135122323409,5265,99
229,-0.0135122258216,5266,99
230,-0.0135113475844,5267,99
231,-0.0135100428015,5268,99
232,-0.0135081587359,5269,99
233,-0.013506998308,5270,99
234,-0.0135042378679,5271,99
235,-0.0135008888319,5272,99
236,-0.0134969484061,5273,99
237,-0.0134899234399,5274,99
238,-0.013484492898,5275,99
239,-0.0134815527126,5276,99
240,-0.0134752215818,5277,99
241,-0.0134682869539,5278,99
242,-0.0134645933285,5279,99
243,-0.013452604413,5280,99
244,-0.0134438537061,5281,99
245,-0.0134344948456,5282,99
246,-0.0134245278314,5283,99
247,-0.0134139517322,5284,99
248,-0.0134027665481,5285,99
249,-0.0133969448507,5286,99
250,-0.0133848460391,5287,99
251,-0.0133721381426,5288,99
252,-0.0133519377559,5289,99
253,-0.0133449016139,5290,99
254,-0.0133228823543,5291,99
255,-0.0133152399212,5292,99
256,-0.0132995033637,5293,99
257,-0.0132831651717,5294,99
258,-0.0132662272081,5295,99
259,-0.0132486913353,5296,99
260,-0.0132397003472,5297,99
261,-0.0132118351758,5298,99
262,-0.0131925195456,5299,99
263,-0.013182641007,5300,99
264,-0.0131521280855,5301,99
265,-0.0131416656077,5302,99
266,-0.0131094092503,5303,99
267,-0.013087186031,5304,99
268,-0.0130758602172,5305,99
269,-0.0130410306156,5306,99
270,-0.0130291385576,5307,99
271,-0.0130171068013,5308,99
272,-0.0129801742733,5309,99
273,-0.0129675865173,5310,99
274,-0.0129419984296,5311,99
275,-0.0129025960341,5312,99
276,-0.012875652872,5313,99
277,-0.0128619810566,5314,99
278,-0.0128201721236,5315,99
279,-0.0128059731796,5316,99
280,-0.0127771869302,5317,99
281,-0.0127330441028,5318,99
282,-0.0127180758864,5319,99
283,-0.0126724205911,5320,99
284,-0.0126413637772,5321,99
285,-0.0126256514341,5322,99
286,-0.0125938653946,5323,99
287,-0.0125777916983,5324,99
288,-0.0125288609415,5325,99
289,-0.0124956555665,5326,99
290,-0.0124619910493,5327,99
291,-0.0124449878931,5328,99
292,-0.0123933060095,5329,99
293,-0.0123583003879,5330,99
294,-0.0123228626326,5331,99
295,-0.0122869983315,5332,99
296,-0.0122507158667,5333,99
297,-0.0122140217572,5334,99
298,-0.0121769234538,5335,99
299,-0.012139428407,5336,99
300,-0.0121205337346,5337,99
301,-0.0121015431359,5338,99
302,-0.0120440013707,5339,99
303,-0.0120051754639,5340,99
304,-0.0119659863412,5341,99
305,-0.0119264405221,5342,99
306,-0.0118865463883,5343,99
307,-0.0118664707989,5344,99
308,-0.0118260690942,5345,99
309,-0.0117648541927,5346,99
310,-0.0117236468941,5347,99
311,-0.0116821303964,5348,99
312,-0.0116612594575,5349,99
313,-0.0115982033312,5350,99
314,-0.0115558095276,5351,99
315,-0.0115345073864,5352,99
316,-0.0114917010069,5353,99
317,-0.0114486301318,5354,99
318,-0.011405303143,5355,99
319,-0.011383545585,5356,99
320,-0.0113398479298,5357,99
321,-0.01129591465,5358,99
322,-0.0112295895815,5359,99
323,-0.0111851012334,5360,99
324,-0.0111404042691,5361,99
325,-0.0111179808155,5362,99
326,-0.0110504198819,5363,99
327,-0.0110278064385,5364,99
328,-0.0109596997499,5365,99
329,-0.0109369121492,5366,99
330,-0.0108912158757,5367,99
331,-0.0108683081344,5368,99
332,-0.0108223808929,5369,99
333,-0.0107763092965,5370,99
334,-0.0107301017269,5371,99
335,-0.0106605524197,5372,99
336,-0.0106373103335,5373,99
337,-0.010567416437,5374,99
338,-0.0105440663174,5375,99
339,-0.0104738734663,5376,99
340,-0.0104269674048,5377,99
341,-0.0103799821809,5378,99
342,-0.0103564616293,5379,99
343,-0.0102858012542,5380,99
344,-0.0102622173727,5381,99
345,-0.0102150114253,5382,99
346,-0.0101677579805,5383,99
347,-0.0101204635575,5384,99
348,-0.0100968033075,5385,99
349,-0.010025780648,5386,99
350,-0.010002094321,5387,99
0,-0.0100092440844,5040,100
1,-0.0100262667984,5041,100
2,-0.0100347632542,5042,100
3,-0.0100601902232,5043,100
4,-0.0100686457008,5044,100
5,-0.0100939506665,5045,100
6,-0.0101107731462,5046,100
7,-0.0101191680878,5047,100
8,-0.0101359328255,5048,100
9,-0.0101610077545,5049,100
10,-0.0101693468168,5050,100
11,-0.0101860007271,5051,100
12,-0.0101943137124,5052,100
13,-0.0102192014456,5053,100
14,-0.0102274818346,5054,100
15,-0.0102522717789,5055,100
16,-0.0102687589824,5056,100
17,-0.0102769909427,5057,100
18,-0.0103016449139,5058,100
19,-0.0103180464357,5059,100
20,-0.0103344218805,5060,100
21,-0.0103507740423,5061,100
22,-0.01035894081,5062,100
23,-0.0103834103793,5063,100
24,-0.0103996992111,5064,100
25,-0.0104078380391,5065,100
26,-0.0104159722105,5066,100
27,-0.010432228446,5067,100
28,-0.0104565871879,5068,100
29,-0.0104728136212,5069,100
30,-0.0104890326038,5070,100
31,-0.0105052459985,5071,100
32,-0.0105214556679,5072,100
33,-0.0105376634747,5073,100
34,-0.0105538722128,5074,100
35,-0.0105619793758,5075,100
36,-0.0105781946331,5076,100
37,-0.0106025356799,5077,100
38,-0.0106106540188,5078,100
39,-0.0106350313872,5079,100
40,-0.0106431655586,5080,100
41,-0.0106513043866,5081,100
42,-0.010667597875,5082,100
43,-0.0106920814142,5083,100
44,-0.0107084373012,5084,100
45,-0.0107248229906,5085,100
46,-0.0107412422076,5086,100
47,-0.0107576958835,5087,100
48,-0.010774188675,5088,100
49,-0.0107907243073,5089,100
50,-0.0107990074903,5090,100
51,-0.0108156101778,5091,100
52,-0.0108406050131,5092,100
53,-0.0108489617705,5093,100
54,-0.010874115862,5094,100
55,-0.0108825294301,5095,100
56,-0.0108993994072,5096,100
57,-0.0109163308516,5097,100
58,-0.0109248207882,5098,100
59,-0.0109503846616,5099,100
60,-0.0109675135463,5100,100
61,-0.0109761031345,5101,100
62,-0.0110019799322,5102,100
63,-0.0110193239525,5103,100
64,-0.0110367434099,5104,100
65,-0.0110542392358,5105,100
66,-0.0110718132928,5106,100
67,-0.0110894674435,5107,100
68,-0.011107201688,5108,100
69,-0.0111250188202,5109,100
70,-0.0111339567229,5110,100
71,-0.011151894927,5111,100
72,-0.0111699188128,5112,100
73,-0.011188024655,5113,100
74,-0.0111971097067,5114,100
75,-0.0112244887277,5115,100
76,-0.0112336566672,5116,100
77,-0.0112520568073,5117,100
78,-0.01127981022,5118,100
79,-0.0112984152511,5119,100
80,-0.0113171013072,5120,100
81,-0.0113358655944,5121,100
82,-0.0113452766091,5122,100
83,-0.0113641582429,5123,100
84,-0.0113926213235,5124,100
85,-0.0114021459594,5125,100
86,-0.0114212492481,5126,100
87,-0.0114404205233,5127,100
88,-0.0114596607164,5128,100
89,-0.0114789642394,5129,100
90,-0.0114886397496,5130,100
91,-0.0115080336109,5131,100
92,-0.0115274842829,5132,100
93,-0.0115567594767,5133,100
94,-0.0115665411577,5134,100
95,-0.0115959551185,5135,100
96,-0.0116156153381,5136,100
97,-0.0116353109479,5137,100
98,-0.0116550372913,5138,100
99,-0.0116747897118,5139,100
100,-0.0116846738383,5140,100
101,-0.0117044579238,5141,100
102,-0.0117242550477,5142,100
103,-0.0117440633476,5143,100
104,-0.0117638744414,5144,100
105,-0.0117836846039,5145,100
106,-0.0117935873568,5146,100
107,-0.0118232779205,5147,100
108,-0.0118331676349,5148,100
109,-0.0118628004566,5149,100
110,-0.0118825202808,5150,100
111,-0.0119022019207,5151,100
112,-0.0119218425825,5152,100
113,-0.0119414348155,5153,100
114,-0.0119609721005,5154,100
115,-0.0119707202539,5155,100
116,-0.0119901653379,5156,100
117,-0.0120095415041,5157,100
118,-0.0120288394392,5158,100
119,-0.0120480544865,5159,100
120,-0.0120576284826,5160,100
121,-0.0120862098411,5161,100
122,-0.0121051361784,5162,100
123,-0.0121239554137,5163,100
124,-0.012142659165,5164,100
125,-0.0121519658715,5165,100
126,-0.0121796950698,5166,100
127,-0.0121888723224,5167,100
128,-0.0122071234509,5168,100
129,-0.0122342249379,5169,100
130,-0.0122521035373,5170,100
131,-0.0122609836981,5171,100
132,-0.0122786192223,5172,100
133,-0.0122873745859,5173,100
134,-0.0123133827001,5174,100
135,-0.012330497615,5175,100
136,-0.0123474253342,5176,100
137,-0.0123641621321,5177,100
138,-0.012372456491,5178,100
139,-0.0123888952658,5179,100
140,-0.0124131673947,5180,100
141,-0.0124211525545,5181,100
142,-0.0124447811395,5182,100
143,-0.0124525465071,5183,100
144,-0.0124679077417,5184,100
145,-0.0124905146658,5185,100
146,-0.0124979335815,5186,100
147,-0.0125052919611,5187,100
148,-0.0125270020217,5188,100
149,-0.0125411655754,5189,100
150,-0.0125481532887,5190,100
151,-0.0125687327236,5191,100
152,-0.0125821279362,5192,100
153,-0.0125887263566,5193,100
154,-0.0126081239432,5194,100
155,-0.0126207182184,5195,100
156,-0.0126330377534,5196,100
157,-0.0126450816169,5197,100
158,-0.0126568460837,5198,100
159,-0.0126626230776,5199,100
160,-0.01267396193,5200,100
161,-0.0126850148663,5201,100
162,-0.0126957790926,5202,100
163,-0.0127062508836,5203,100
164,-0.0127164311707,5204,100
165,-0.0127214100212,5205,100
166,-0.0127359014004,5206,100
167,-0.012740583159,5207,100
168,-0.0127541767433,5208,100
169,-0.0127585558221,5209,100
170,-0.0127712413669,5210,100
171,-0.0127793168649,5211,100
172,-0.0127870868891,5212,100
173,-0.0127945495769,5213,100
174,-0.0128017030656,5214,100
175,-0.0128085482866,5215,100
176,-0.0128118544817,5216,100
177,-0.0128182340413,5217,100
178,-0.0128243016079,5218,100
179,-0.0128272185102,5219,100
180,-0.0128355026245,5220,100
181,-0.0128406332806,5221,100
182,-0.0128430826589,5222,100
183,-0.0128499548882,5223,100
184,-0.0128541439772,5224,100
185,-0.012856121175,5225,100
186,-0.0128615796566,5226,100
187,-0.0128632420674,5227,100
188,-0.0128677571192,5228,100
189,-0.0128703741357,5229,100
190,-0.0128726745024,5230,100
191,-0.0128737073392,5231,100
192,-0.0128746600822,5232,100
193,-0.0128763299435,5233,100
194,-0.0128776868805,5234,100
195,-0.0128791257739,5235,100
196,-0.0128794489428,5236,100
197,-0.0128799425438,5237,100
198,-0.0128799481317,5238,100
199,-0.012879492715,5239,100
200,-0.0128787923604,5240,100
201,-0.0128777772188,5241,100
202,-0.01287715137,5242,100
203,-0.0128756612539,5243,100
204,-0.0128728328273,5244,100
205,-0.0128705501556,5245,100
206,-0.0128692900762,5246,100
207,-0.0128665324301,5247,100
208,-0.0128634581342,5248,100
209,-0.0128618003801,5249,100
210,-0.0128563512117,5250,100
211,-0.0128523213789,5251,100
212,-0.0128479711711,5252,100
213,-0.0128433033824,5253,100
214,-0.0128383152187,5254,100
215,-0.0128330057487,5255,100
216,-0.012827376835,5256,100
217,-0.0128244413063,5257,100
218,-0.0128151541576,5258,100
219,-0.0128085585311,5259,100
220,-0.0128016415983,5260,100
221,-0.0127980615944,5261,100
222,-0.0127906585112,5262,100
223,-0.0127868354321,5263,100
224,-0.0127748781815,5264,100
225,-0.012766500935,5265,100
226,-0.0127621898428,5266,100
227,-0.0127533236519,5267,100
228,-0.0127394096926,5268,100
229,-0.0127297248691,5269,100
230,-0.0127247581258,5270,100
231,-0.0127093689516,5271,100
232,-0.0126986969262,5272,100
233,-0.012687696144,5273,100
234,-0.0126820709556,5274,100
235,-0.0126647027209,5275,100
236,-0.0126587478444,5276,100
237,-0.0126527091488,5277,100
238,-0.0126340994611,5278,100
239,-0.0126212779433,5279,100
240,-0.0126081258059,5280,100
241,-0.0125946421176,5281,100
242,-0.0125808250159,5282,100
243,-0.0125666791573,5283,100
244,-0.0125521989539,5284,100
245,-0.0125373899937,5285,100
246,-0.0125298602507,5286,100
247,-0.0125145530328,5287,100
248,-0.0124989179894,5288,100
249,-0.0124748451635,5289,100
250,-0.012458386831,5290,100
251,-0.0124415997416,5291,100
252,-0.012433083728,5292,100
253,-0.0124244866893,5293,100
254,-0.0124070458114,5294,100
255,-0.0123802768067,5295,100
256,-0.0123711936176,5296,100
257,-0.0123434560373,5297,100
258,-0.0123245650902,5298,100
259,-0.0123053565621,5299,100
260,-0.012285830453,5300,100
261,-0.0122659886256,5301,100
262,-0.0122458357364,5302,100
263,-0.0122356424108,5303,100
264,-0.0122045995668,5304,100
265,-0.0121835209429,5305,100
266,-0.0121621377766,5306,100
267,-0.0121513353661,5307,100
268,-0.012129502371,5308,100
269,-0.0121073704213,5309,100
270,-0.0120849469677,5310,100
271,-0.0120622310787,5311,100
272,-0.0120507646352,5312,100
273,-0.0120159368962,5313,100
274,-0.0119923651218,5314,100
275,-0.0119685139507,5315,100
276,-0.0119443871081,5316,100
277,-0.0119322221726,5317,100
278,-0.0118953222409,5318,100
279,-0.0118828890845,5319,100
280,-0.0118578244001,5320,100
281,-0.0118325017393,5321,100
282,-0.0118069220334,5322,100
283,-0.0117810908705,5323,100
284,-0.0117550101131,5324,100
285,-0.0117286862805,5325,100
286,-0.0117021203041,5326,100
287,-0.0116753187031,5327,100
288,-0.0116618284956,5328,100
289,-0.0116346785799,5329,100
290,-0.0115935262293,5330,100
291,-0.0115658147261,5331,100
292,-0.0115378824994,5332,100
293,-0.0115097369999,5333,100
294,-0.0114813819528,5334,100
295,-0.0114528182894,5335,100
296,-0.0114240515977,5336,100
297,-0.0114095946774,5337,100
298,-0.0113805308938,5338,100
299,-0.0113659258932,5339,100
300,-0.011321824044,5340,100
301,-0.0112921893597,5341,100
302,-0.0112773021683,5342,100
303,-0.0112323677167,5343,100
304,-0.0112172989175,5344,100
305,-0.0111870318651,5345,100
306,-0.0111565897241,5346,100
307,-0.011110608466,5347,100
308,-0.0110797444358,5348,100
309,-0.0110487174243,5349,100
310,-0.0110331429169,5350,100
311,-0.0109861791134,5351,100
312,-0.0109704453498,5352,100
313,-0.0109388614073,5353,100
314,-0.010907121934,5354,100
315,-0.0108752306551,5355,100
316,-0.0108431903645,5356,100
317,-0.0108109991997,5357,100
318,-0.010778660886,5358,100
319,-0.0107461754233,5359,100
320,-0.0107298782095,5360,100
321,-0.0106807714328,5361,100
322,-0.0106478538364,5362,100
323,-0.010614794679,5363,100
324,-0.0105982124805,5364,100
325,-0.0105649428442,5365,100
326,-0.0105147734284,5366,100
327,-0.0104979788885,5367,100
328,-0.010464287363,5368,100
329,-0.0104304580018,5369,100
330,-0.0103964880109,5370,100
331,-0.0103623783216,5371,100
332,-0.0103281307966,5372,100
333,-0.0102937417105,5373,100
334,-0.0102592119947,5374,100
335,-0.0102245435119,5375,100
