,amplitude,tstep,vfp
0,-0.0100219380111,4700,98
1,-0.0100663099438,4701,98
2,-0.0101104760543,4702,98
3,-0.0101324822754,4703,98
4,-0.0101981963962,4704,98
5,-0.0102417506278,4705,98
6,-0.0102634513751,4706,98
7,-0.0103067029268,4707,98
8,-0.0103497533128,4708,98
9,-0.0104139503092,4709,98
10,-0.0104564968497,4710,98
11,-0.0104776956141,4711,98
12,-0.0105409892276,4712,98
13,-0.010582935065,4713,98
14,-0.0106246788055,4714,98
15,-0.0106662223116,4715,98
16,-0.0106869190931,4716,98
17,-0.0107281608507,4717,98
18,-0.0107692005113,4718,98
19,-0.0108100390062,4719,98
20,-0.0108506744727,4720,98
21,-0.010891106911,4721,98
22,-0.0109313363209,4722,98
23,-0.0109713580459,4723,98
24,-0.0109912930056,4724,98
25,-0.0110507877544,4725,98
26,-0.0110901901498,4726,98
27,-0.0111293839291,4727,98
28,-0.0111683681607,4728,98
29,-0.0112071419135,4729,98
30,-0.0112264482304,4730,98
31,-0.0112840523943,4731,98
32,-0.0113031454384,4732,98
33,-0.0113411713392,4733,98
34,-0.0113601023331,4734,98
35,-0.0113978004083,4735,98
36,-0.0114539396018,4736,98
37,-0.0114910909906,4737,98
38,-0.0115280197933,4738,98
39,-0.0115647250786,4739,98
40,-0.0116012059152,4740,98
41,-0.0116374595091,4741,98
42,-0.0116734858602,4742,98
43,-0.0117092840374,4743,98
44,-0.0117270974442,4744,98
45,-0.0117801874876,4745,98
46,-0.0118152908981,4746,98
47,-0.011832755059,4747,98
48,-0.0118675064296,4748,98
49,-0.0119020221755,4749,98
50,-0.0119191911072,4750,98
51,-0.0119703449309,4751,98
52,-0.0120041463524,4752,98
53,-0.0120377102867,4753,98
54,-0.0120710330084,4754,98
55,-0.0121041154489,4755,98
56,-0.0121369538829,4756,98
57,-0.0121695520356,4757,98
58,-0.0122019061819,4758,98
59,-0.0122340163216,4759,98
60,-0.0122658833861,4760,98
61,-0.0122975064442,4761,98
62,-0.0123132243752,4762,98
63,-0.0123444804922,4763,98
64,-0.0123754898086,4764,98
65,-0.0124062551185,4765,98
66,-0.012436776422,4766,98
67,-0.0124670509249,4767,98
68,-0.0124820973724,4768,98
69,-0.0125268697739,4769,98
70,-0.0125564131886,4770,98
71,-0.0125857116655,4771,98
72,-0.0126002700999,4772,98
73,-0.0126435812563,4773,98
74,-0.0126721542329,4774,98
75,-0.0126863503829,4775,98
76,-0.0127285756171,4776,98
77,-0.0127425324172,4777,98
78,-0.0127702653408,4778,98
79,-0.0127840414643,4779,98
80,-0.0128114176914,4780,98
81,-0.0128520363942,4781,98
82,-0.0128654586151,4782,98
83,-0.0128921279684,4783,98
84,-0.0129185635597,4784,98
85,-0.0129577806219,4785,98
86,-0.0129836369306,4786,98
87,-0.0130092641339,4787,98
88,-0.0130346631631,4788,98
89,-0.0130598340183,4789,98
90,-0.0130847804248,4790,98
91,-0.0131095005199,4791,98
92,-0.0131217772141,4792,98
93,-0.0131339970976,4793,98
94,-0.0131703261286,4794,98
95,-0.0131942695007,4795,98
96,-0.013206156902,4796,98
97,-0.0132414959371,4797,98
98,-0.013253165409,4798,98
99,-0.0132878506556,4799,98
100,-0.0133107043803,4800,98
101,-0.0133333429694,4801,98
102,-0.0133557654917,4802,98
103,-0.0133779766038,4803,98
104,-0.0133890016004,4804,98
105,-0.0134217571467,4805,98
106,-0.0134325716645,4806,98
107,-0.0134646929801,4807,98
108,-0.0134752951562,4808,98
109,-0.0134963393211,4809,98
110,-0.0135171739385,4810,98
111,-0.0135377990082,4811,98
112,-0.013558213599,4812,98
113,-0.0135784186423,4813,98
114,-0.0135884424672,4814,98
115,-0.0136083317921,4815,98
116,-0.0136280115694,4816,98
117,-0.0136571368203,4817,98
118,-0.0136667406186,4818,98
119,-0.0136952353641,4819,98
120,-0.0137046286836,4820,98
121,-0.0137232542038,4821,98
122,-0.0137416692451,4822,98
123,-0.0137598728761,4823,98
124,-0.0137688927352,4824,98
125,-0.0137956393883,4825,98
126,-0.0138044478372,4826,98
127,-0.0138305490837,4827,98
128,-0.0138391433284,4828,98
129,-0.0138646000996,4829,98
130,-0.0138812987134,4830,98
131,-0.0138895679265,4831,98
132,-0.01390594244,4832,98
133,-0.0139300953597,4833,98
134,-0.0139459213242,4834,98
135,-0.0139537528157,4835,98
136,-0.0139769148082,4836,98
137,-0.0139920786023,4837,98
138,-0.0139995776117,4838,98
139,-0.0140144079924,4839,98
140,-0.0140217393637,4840,98
141,-0.0140434000641,4841,98
142,-0.0140505088493,4842,98
143,-0.014064556919,4843,98
144,-0.0140783814713,4844,98
145,-0.0140986936167,4845,98
146,-0.0141053525731,4846,98
147,-0.0141249885783,4847,98
148,-0.0141314212233,4848,98
149,-0.0141503810883,4849,98
150,-0.0141627397388,4850,98
151,-0.0141748739406,4851,98
152,-0.0141867808998,4852,98
153,-0.0141926500946,4853,98
154,-0.0142042217776,4854,98
155,-0.0142155680805,4855,98
156,-0.0142266927287,4856,98
157,-0.0142375938594,4857,98
158,-0.0142482724041,4858,98
159,-0.0142587302253,4859,98
160,-0.0142689663917,4860,98
161,-0.0142789864913,4861,98
162,-0.0142839131877,4862,98
163,-0.0142983719707,4863,98
164,-0.0143077429384,4864,98
165,-0.014316899702,4865,98
166,-0.0143258422613,4866,98
167,-0.0143345789984,4867,98
168,-0.0143388686702,4868,98
169,-0.0143431043252,4869,98
170,-0.0143514247611,4870,98
171,-0.0143595393747,4871,98
172,-0.0143713345751,4872,98
173,-0.0143789499998,4873,98
174,-0.0143863670528,4874,98
175,-0.0143935894594,4875,98
176,-0.0144006228074,4876,98
177,-0.0144074652344,4877,98
178,-0.0144141223282,4878,98
179,-0.0144173810259,4879,98
180,-0.0144268851727,4880,98
181,-0.0144329974428,4881,98
182,-0.0144389355555,4882,98
183,-0.0144418394193,4883,98
184,-0.0144475186244,4884,98
185,-0.01445302926,4885,98
186,-0.0144557217136,4886,98
187,-0.0144609883428,4887,98
188,-0.014468582347,4888,98
189,-0.0144710354507,4889,98
190,-0.014475826174,4890,98
191,-0.0144827300683,4891,98
192,-0.0144871482626,4892,98
193,-0.0144914202392,4893,98
194,-0.0144955534488,4894,98
195,-0.0144995478913,4895,98
196,-0.0145014952868,4896,98
197,-0.014507137239,4897,98
198,-0.014508953318,4898,98
199,-0.0145124895498,4899,98
200,-0.0145142106339,4900,98
201,-0.0145175615326,4901,98
202,-0.0145223634318,4902,98
203,-0.0145254200324,4903,98
204,-0.0145283620805,4904,98
205,-0.0145311951637,4905,98
206,-0.0145339211449,4906,98
207,-0.0145352445543,4907,98
208,-0.0145390601829,4908,98
209,-0.0145414788276,4909,98
210,-0.0145438015461,4910,98
211,-0.0145460274071,4911,98
212,-0.0145481619984,4912,98
213,-0.0145491948351,4913,98
214,-0.0145511934534,4914,98
215,-0.0145521601662,4915,98
216,-0.0145540302619,4916,98
217,-0.0145566761494,4917,98
218,-0.0145583385602,4918,98
219,-0.0145591404289,4919,98
220,-0.0145606836304,4920,98
221,-0.014562856406,4921,98
222,-0.0145642114803,4922,98
223,-0.0145654948428,4923,98
224,-0.0145661095157,4924,98
225,-0.0145678464323,4925,98
226,-0.0145689174533,4926,98
227,-0.014569921419,4927,98
228,-0.0145708583295,4928,98
229,-0.0145713007078,4929,98
230,-0.0145721398294,4930,98
231,-0.0145729118958,4931,98
232,-0.0145736215636,4932,98
233,-0.0145742688328,4933,98
234,-0.0145745677873,4934,98
235,-0.0145751200616,4935,98
236,-0.0145758343861,4936,98
237,-0.0145762329921,4937,98
238,-0.014576411806,4938,98
239,-0.0145767191425,4939,98
240,-0.0145770674571,4940,98
241,-0.0145772239193,4941,98
242,-0.0145773207769,4942,98
243,-0.0145773561671,4943,98
244,-0.0145773505792,4944,98
245,-0.0145773310214,4945,98
246,-0.0145771764219,4946,98
247,-0.0145769976079,4947,98
248,-0.014576758258,4948,98
249,-0.0145764555782,4949,98
250,-0.0145760914311,4950,98
251,-0.0145758846775,4951,98
252,-0.0145751722157,4952,98
253,-0.0145746162161,4953,98
254,-0.0145739987493,4954,98
255,-0.0145736644045,4955,98
256,-0.0145725635812,4956,98
257,-0.0145717477426,4957,98
258,-0.0145708629861,4958,98
259,-0.0145703954622,4959,98
260,-0.0145694101229,4960,98
261,-0.0145688913763,4961,98
262,-0.0145672308281,4962,98
263,-0.0145660350099,4963,98
264,-0.0145654100925,4964,98
265,-0.0145634263754,4965,98
266,-0.0145620154217,4966,98
267,-0.0145605308935,4967,98
268,-0.0145589699969,4968,98
269,-0.0145573345944,4969,98
270,-0.0145556228235,4970,98
271,-0.0145547371358,4971,98
272,-0.0145519655198,4972,98
273,-0.0145510016009,4973,98
274,-0.0145490160212,4974,98
275,-0.0145469494164,4975,98
276,-0.0145448027179,4976,98
277,-0.0145425759256,4977,98
278,-0.014540264383,4978,98
279,-0.0145378718153,4979,98
280,-0.0145353935659,4980,98
281,-0.0145341241732,4981,98
282,-0.0145301856101,4982,98
283,-0.0145274531096,4983,98
284,-0.0145246321335,4984,98
285,-0.0145217254758,4985,98
286,-0.0145187284797,4986,98
287,-0.0145156420767,4987,98
288,-0.0145124662668,4988,98
289,-0.0145108439028,4989,98
290,-0.0145075293258,4990,98
291,-0.0145058389753,4991,98
292,-0.0145006263629,4992,98
293,-0.014497035183,4993,98
294,-0.0144952032715,4994,98
295,-0.0144914705306,4995,98
296,-0.0144856898114,4996,98
297,-0.0144817167893,4997,98
298,-0.0144776459783,4998,98
299,-0.0144755728543,4999,98
300,-0.0144692044705,5000,98
301,-0.014464834705,5001,98
302,-0.0144603643566,5002,98
303,-0.0144580909982,5003,98
304,-0.014453465119,5004,98
305,-0.014448735863,5005,98
306,-0.0144439004362,5006,98
307,-0.0144389625639,5007,98
308,-0.0144339175895,5008,98
309,-0.014428762719,5009,98
310,-0.0144235016778,5010,98
311,-0.014420828782,5011,98
312,-0.0144126461819,5012,98
313,-0.0144070535898,5013,98
314,-0.0144013455138,5014,98
315,-0.0143955238163,5015,98
316,-0.0143895866349,5016,98
317,-0.0143835321069,5017,98
318,-0.0143773611635,5018,98
319,-0.0143742309883,5019,98
320,-0.0143678802997,5020,98
321,-0.0143614076078,5021,98
322,-0.0143581265584,5022,98
323,-0.0143514722586,5023,98
324,-0.0143446931615,5024,98
325,-0.0143342902884,5025,98
326,-0.0143307596445,5026,98
327,-0.0143199767917,5027,98
328,-0.0143126249313,5028,98
329,-0.0143051436171,5029,98
330,-0.0143013522029,5030,98
331,-0.0142897833139,5031,98
332,-0.0142858587205,5032,98
333,-0.0142779108137,5033,98
334,-0.0142698260024,5034,98
335,-0.0142616042867,5035,98
336,-0.014253243804,5036,98
337,-0.0142447445542,5037,98
338,-0.014236102812,5038,98
339,-0.0142317302525,5039,98
340,-0.0142228780314,5040,98
341,-0.0142093310133,5041,98
342,-0.0142047423869,5042,98
343,-0.0141907623038,5043,98
344,-0.0141812609509,5044,98
345,-0.0141716115177,5045,98
346,-0.0141618158668,5046,98
347,-0.014151873067,5047,98
348,-0.0141417821869,5048,98
349,-0.0141366804019,5049,98
350,-0.0141263641417,5050,98
351,-0.0141158998013,5051,98
352,-0.0141052845865,5052,98
353,-0.0140945203602,5053,98
354,-0.0140836043283,5054,98
355,-0.0140725383535,5055,98
356,-0.0140613215044,5056,98
357,-0.0140499547124,5057,98
358,-0.0140384361148,5058,98
359,-0.0140267694369,5059,98
360,-0.0140149500221,5060,98
361,-0.0140029815957,5061,98
362,-0.013990862295,5062,98
363,-0.0139785930514,5063,98
364,-0.0139661766589,5064,98
365,-0.0139599107206,5065,98
366,-0.0139472708106,5066,98
367,-0.0139344828203,5067,98
368,-0.0139215476811,5068,98
369,-0.0139150246978,5069,98
370,-0.0138952350244,5070,98
371,-0.0138818603009,5071,98
372,-0.0138751193881,5072,98
373,-0.0138615295291,5073,98
374,-0.013840874657,5074,98
375,-0.0138269271702,5075,98
376,-0.0138128399849,5076,98
377,-0.0138057442382,5077,98
378,-0.0137914456427,5078,98
379,-0.0137697393075,5079,98
380,-0.0137624358758,5080,98
381,-0.0137477265671,5081,98
382,-0.0137328812853,5082,98
383,-0.0137179000303,5083,98
384,-0.0137027883902,5084,98
385,-0.0136951813474,5085,98
386,-0.0136721674353,5086,98
387,-0.0136644300073,5087,98
388,-0.013641025871,5088,98
389,-0.0136252641678,5089,98
390,-0.0136093748733,5090,98
391,-0.013593358919,5091,98
392,-0.0135853048414,5092,98
393,-0.0135609554127,5093,98
394,-0.0135445678607,5094,98
395,-0.0135363293812,5095,98
396,-0.0135197611526,5096,98
397,-0.0135030709207,5097,98
398,-0.0134946806356,5098,98
399,-0.0134693337604,5099,98
400,-0.0134522877634,5100,98
401,-0.013443720527,5101,98
402,-0.0134178437293,5102,98
403,-0.0134004456922,5103,98
404,-0.0133917042986,5104,98
405,-0.0133741339669,5105,98
406,-0.0133564490825,5106,98
407,-0.0133297061548,5107,98
408,-0.0133117353544,5108,98
409,-0.0132936518639,5109,98
410,-0.0132845668122,5110,98
411,-0.0132663119584,5111,98
412,-0.0132571402937,5112,98
413,-0.0132294595242,5113,98
414,-0.0132201751694,5114,98
415,-0.0131921535358,5115,98
416,-0.0131733277813,5116,98
417,-0.013154390268,5117,98
418,-0.0131353344768,5118,98
419,-0.0131161659956,5119,98
420,-0.0130968801677,5120,98
421,-0.0130774779245,5121,98
422,-0.0130677334964,5122,98
423,-0.0130481543019,5123,98
424,-0.0130284568295,5124,98
425,-0.0130086392164,5125,98
426,-0.0129986852407,5126,98
427,-0.0129786860198,5127,98
428,-0.012948458083,5128,98
429,-0.0129281505942,5129,98
430,-0.0129179488868,5130,98
431,-0.0128871547058,5131,98
432,-0.0128664644435,5132,98
433,-0.0128456447273,5133,98
434,-0.0128351859748,5134,98
435,-0.012803606689,5135,98
436,-0.0127823874354,5136,98
437,-0.0127717256546,5137,98
438,-0.0127395326272,5138,98
439,-0.0127178942785,5139,98
440,-0.0127070220187,5140,98
441,-0.0126851694658,5141,98
442,-0.012663169764,5142,98
443,-0.0126410229132,5143,98
444,-0.0126298926771,5144,98
445,-0.0125962747261,5145,98
446,-0.0125736705959,5146,98
447,-0.0125623093918,5147,98
448,-0.012527987361,5148,98
449,-0.0125049045309,5149,98
450,-0.0124816577882,5150,98
451,-0.0124582462013,5151,98
452,-0.0124346641824,5152,98
453,-0.012422808446,5153,98
454,-0.0123989703134,5154,98
455,-0.0123749570921,5155,98
456,-0.0123507659882,5156,98
457,-0.0123386038467,5157,98
458,-0.0123018445447,5158,98
459,-0.0122771076858,5159,98
460,-0.0122646708041,5160,98
461,-0.0122270733118,5161,98
462,-0.0122017720714,5162,98
463,-0.0121890483424,5163,98
464,-0.0121505856514,5164,98
465,-0.0121246948838,5165,98
466,-0.0120986066759,5166,98
467,-0.0120723154396,5167,98
468,-0.0120458202437,5168,98
469,-0.0120191173628,5169,98
470,-0.0119922077283,5170,98
471,-0.0119786728173,5171,98
472,-0.0119650857523,5172,98
473,-0.0119240069762,5173,98
474,-0.0118963513523,5174,98
475,-0.011882442981,5175,98
476,-0.0118403881788,5176,98
477,-0.0118262600154,5177,98
478,-0.0117835430428,5178,98
479,-0.0117547856644,5179,98
480,-0.0117258019745,5180,98
481,-0.0117112249136,5181,98
482,-0.0116819003597,5182,98
483,-0.0116374818608,5183,98
484,-0.0116225611418,5184,98
485,-0.0115925418213,5185,98
486,-0.0115622887388,5186,98
487,-0.011531800963,5187,98
488,-0.0115164685994,5188,98
489,-0.0114701138809,5189,98
490,-0.0114389108494,5190,98
491,-0.0114074675366,5191,98
492,-0.0113916546106,5192,98
493,-0.0113438507542,5193,98
494,-0.011327794753,5194,98
495,-0.0112792560831,5195,98
496,-0.0112465899438,5196,98
497,-0.0112136751413,5197,98
498,-0.0111971236765,5198,98
499,-0.0111470958218,5199,98
500,-0.011113429442,5200,98
501,-0.0110964998603,5201,98
502,-0.0110624525696,5202,98
503,-0.0110281500965,5203,98
504,-0.0109935915098,5204,98
505,-0.0109762158245,5205,98
506,-0.0109237004071,5206,98
507,-0.0108883678913,5207,98
508,-0.0108527718112,5208,98
509,-0.0108348745853,5209,98
510,-0.010780791752,5210,98
511,-0.0107444049791,5211,98
512,-0.010726111941,5212,98
513,-0.010670831427,5213,98
514,-0.0106522701681,5214,98
515,-0.0106149455532,5215,98
516,-0.0105773489922,5216,98
517,-0.0105584496632,5217,98
518,-0.0105013400316,5218,98
519,-0.0104629239067,5219,98
520,-0.0104242293164,5220,98
521,-0.0103852562606,5221,98
522,-0.0103460047394,5222,98
523,-0.010326275602,5223,98
524,-0.0102666597813,5224,98
525,-0.0102265616879,5225,98
526,-0.0102064060047,5226,98
527,-0.0101658813655,5227,98
528,-0.0101250680164,5228,98
529,-0.0100839678198,5229,98
530,-0.010021773167,5230,98
531,-0.0100008966401,5231,98
0,-0.0100519014522,4682,99
1,-0.0101226055995,4683,99
2,-0.0101929018274,4684,99
3,-0.0102627882734,4685,99
4,-0.0102975759655,4686,99
5,-0.0103322602808,4687,99
6,-0.0104013150558,4688,99
7,-0.0105041079223,4689,99
8,-0.0105721047148,4690,99
9,-0.0106396730989,4691,99
10,-0.0106732947752,4692,99
11,-0.0107735097408,4693,99
12,-0.010839773342,4694,99
13,-0.0108727402985,4695,99
14,-0.0109709762037,4696,99
15,-0.0110359080136,4697,99
16,-0.011100390926,4698,99
17,-0.0111324628815,4699,99
18,-0.0112279998139,4700,99
19,-0.0112596172839,4701,99
20,-0.0113225085661,4702,99
21,-0.0113537823781,4703,99
22,-0.0114159816876,4704,99
23,-0.0115084117278,4705,99
24,-0.0115694506094,4706,99
25,-0.0116300201043,4707,99
26,-0.0116901192814,4708,99
27,-0.0117199923843,4709,99
28,-0.0118089010939,4710,99
29,-0.0118675809354,4711,99
30,-0.0118967425078,4712,99
31,-0.0119835101068,4713,99
32,-0.0120407566428,4714,99
33,-0.0120975235477,4715,99
34,-0.0121257258579,4716,99
35,-0.0121817700565,4717,99
36,-0.0122373327613,4718,99
37,-0.0122924121097,4719,99
38,-0.0123470081016,4720,99
39,-0.0124011198059,4721,99
40,-0.0124279940501,4722,99
41,-0.0125078894198,4723,99
42,-0.0125605463982,4724,99
43,-0.0126127190888,4725,99
44,-0.0126644065604,4726,99
45,-0.0127156088129,4727,99
46,-0.0127663267776,4728,99
47,-0.0127915050834,4729,99
48,-0.0128663117066,4730,99
49,-0.0129155796021,4731,99
50,-0.0129400324076,4732,99
51,-0.0129885766655,4733,99
52,-0.013036640361,4734,99
53,-0.0130842244253,4735,99
54,-0.0131313288584,4736,99
55,-0.0131547022611,4737,99
56,-0.0132010905072,4738,99
57,-0.0132697829977,4739,99
58,-0.0132924439386,4740,99
59,-0.0133374119177,4741,99
60,-0.0134039809927,4742,99
61,-0.0134477755055,4743,99
62,-0.0134911052883,4744,99
63,-0.0135339703411,4745,99
64,-0.0135552305728,4746,99
65,-0.0135974045843,4747,99
66,-0.0136183202267,4748,99
67,-0.0136803826317,4749,99
68,-0.0137211913243,4750,99
69,-0.0137615492567,4751,99
70,-0.0138014610857,4752,99
71,-0.0138409277424,4753,99
72,-0.0138799520209,4754,99
73,-0.0139185385779,4755,99
74,-0.0139566892758,4756,99
75,-0.0139944078401,4757,99
76,-0.014031697996,4758,99
77,-0.0140501828864,4759,99
78,-0.0141050023958,4760,99
79,-0.0141410240903,4761,99
80,-0.0141588794068,4762,99
81,-0.0141942808405,4763,99
82,-0.0142292715609,4764,99
83,-0.014263857156,4765,99
84,-0.0142980413511,4766,99
85,-0.0143149830401,4767,99
86,-0.0143652167171,4768,99
87,-0.0143982153386,4769,99
88,-0.0144308274612,4770,99
89,-0.0144469905645,4771,99
90,-0.014479030855,4772,99
91,-0.0145263867453,4773,99
92,-0.0145574938506,4774,99
93,-0.0145729100332,4775,99
94,-0.0146034695208,4776,99
95,-0.0146336685866,4777,99
96,-0.0146486358717,4778,99
97,-0.0146930068731,4779,99
98,-0.0147221535444,4780,99
99,-0.014750957489,4781,99
100,-0.0147794233635,4782,99
101,-0.0147935310379,4783,99
102,-0.0148353567347,4784,99
103,-0.0148628335446,4785,99
104,-0.0148899909109,4786,99
105,-0.0149034503847,4787,99
106,-0.014943360351,4788,99
107,-0.0149565096945,4789,99
108,-0.014995499514,4790,99
109,-0.0150211183354,4791,99
110,-0.0150338169187,4792,99
111,-0.0150464419276,4793,99
112,-0.015083886683,4794,99
113,-0.0151084940881,4795,99
114,-0.015132821165,4796,99
115,-0.0151568735018,4797,99
116,-0.0151806548238,4798,99
117,-0.0152041697875,4799,99
118,-0.0152274230495,4800,99
119,-0.0152504164726,4801,99
120,-0.0152618177235,4802,99
121,-0.0152956452221,4803,99
122,-0.0153178889304,4804,99
123,-0.0153398904949,4805,99
124,-0.0153508018702,4806,99
125,-0.0153724476695,4807,99
126,-0.0153938606381,4808,99
127,-0.0154044814408,4809,99
128,-0.0154360057786,4810,99
129,-0.0154464030638,4811,99
130,-0.0154772680253,4812,99
131,-0.0154975773767,4813,99
132,-0.0155076533556,4814,99
133,-0.015537571162,4815,99
134,-0.0155572611839,4816,99
135,-0.015576752834,4817,99
136,-0.0155960489064,4818,99
137,-0.0156151521951,4819,99
138,-0.0156340654939,4820,99
139,-0.0156527943909,4821,99
140,-0.0156620889902,4822,99
141,-0.0156805440784,4823,99
142,-0.0156897045672,4824,99
143,-0.0157078932971,4825,99
144,-0.0157348494977,4826,99
145,-0.0157526116818,4827,99
146,-0.0157702062279,4828,99
147,-0.0157876387239,4829,99
148,-0.0157962944359,4830,99
149,-0.0158220268786,4831,99
150,-0.0158305261284,4832,99
151,-0.0158474054188,4833,99
152,-0.0158641356975,4834,99
153,-0.0158807169646,4835,99
154,-0.0159053131938,4836,99
155,-0.0159215312451,4837,99
156,-0.0159295871854,4838,99
157,-0.0159455947578,4839,99
158,-0.0159614644945,4840,99
159,-0.0159693490714,4841,99
160,-0.0159927997738,4842,99
161,-0.0160005521029,4843,99
162,-0.0160236116499,4844,99
163,-0.0160388257354,4845,99
164,-0.0160539131612,4846,99
165,-0.0160614103079,4847,99
