,amplitude,tstep,vfp
0,-0.0100086890161,4887,98
1,-0.010046496056,4888,98
2,-0.0101030441001,4889,98
3,-0.0101406369358,4890,98
4,-0.0101781412959,4891,98
5,-0.0101968627423,4892,98
6,-0.0102342413738,4893,98
7,-0.0102901495993,4894,98
8,-0.010327314958,4895,98
9,-0.010364394635,4896,98
10,-0.0104013895616,4897,98
11,-0.0104198530316,4898,98
12,-0.0104567147791,4899,98
13,-0.010493488051,4900,98
14,-0.010511838831,4901,98
15,-0.0105667607859,4902,98
16,-0.0106032583863,4903,98
17,-0.0106396609917,4904,98
18,-0.0106759667397,4905,98
19,-0.0106940818951,4906,98
20,-0.0107482755557,4907,98
21,-0.0107662891969,4908,98
22,-0.0108201680705,4909,98
23,-0.0108559504151,4910,98
24,-0.0108916219324,4911,98
25,-0.0109271770343,4912,98
26,-0.0109449103475,4913,98
27,-0.0109626147896,4914,98
28,-0.010997931473,4915,98
29,-0.0110506685451,4916,98
30,-0.0110856667161,4917,98
31,-0.011120531708,4918,98
32,-0.0111552588642,4919,98
33,-0.0111898463219,4920,98
34,-0.0112242922187,4921,98
35,-0.0112585909665,4922,98
36,-0.011275684461,4923,98
37,-0.0113267330453,4924,98
38,-0.0113605707884,4925,98
39,-0.0113942492753,4926,98
40,-0.0114110270515,4927,98
41,-0.0114611107856,4928,98
42,-0.0114777209237,4929,98
43,-0.011494288221,4930,98
44,-0.0115272952244,4931,98
45,-0.0115601262078,4932,98
46,-0.0116090364754,4933,98
47,-0.0116414157674,4934,98
48,-0.0116575369611,4935,98
49,-0.0116896377876,4936,98
50,-0.0117374369875,4937,98
51,-0.0117532741278,4938,98
52,-0.0118004959077,4939,98
53,-0.0118317361921,4940,98
54,-0.0118627781048,4941,98
55,-0.0118936235085,4942,98
56,-0.0119242686778,4943,98
57,-0.0119395172223,4944,98
58,-0.0119698634371,4945,98
59,-0.0120000084862,4946,98
60,-0.0120299514383,4947,98
61,-0.0120448470116,4948,98
62,-0.0120744854212,4949,98
63,-0.0121039235964,4950,98
64,-0.0121477013454,4951,98
65,-0.0121766338125,4952,98
66,-0.0121910246089,4953,98
67,-0.0122338980436,4954,98
68,-0.0122622316703,4955,98
69,-0.0122763235122,4956,98
70,-0.0123183066025,4957,98
71,-0.0123460479081,4958,98
72,-0.0123598463833,4959,98
73,-0.0123872989789,4960,98
74,-0.0124145615846,4961,98
75,-0.0124416332692,4962,98
76,-0.0124685186893,4963,98
77,-0.0124818915501,4964,98
78,-0.0125217363238,4965,98
79,-0.0125480731949,4966,98
80,-0.012574234046,4967,98
81,-0.012587249279,4968,98
82,-0.012626032345,4969,98
83,-0.0126516753808,4970,98
84,-0.0126771517098,4971,98
85,-0.0127024659887,4972,98
86,-0.0127276182175,4973,98
87,-0.0127401342615,4974,98
88,-0.0127650508657,4975,98
89,-0.0127898156643,4976,98
90,-0.0128144286573,4977,98
91,-0.0128388954327,4978,98
92,-0.0128632187843,4979,98
93,-0.0128873996437,4980,98
94,-0.0128994379193,4981,98
95,-0.0129234138876,4982,98
96,-0.0129472557455,4983,98
97,-0.0129709690809,4984,98
98,-0.0129945520312,4985,98
99,-0.0130296945572,4986,98
100,-0.0130529720336,4987,98
101,-0.0130645669997,4988,98
102,-0.0130876665935,4989,98
103,-0.013110652566,4990,98
104,-0.013133527711,4991,98
105,-0.01315629296,4992,98
106,-0.0131676346064,4993,98
107,-0.0132015012205,4994,98
108,-0.0132127385587,4995,98
109,-0.0132351359352,4996,98
110,-0.01326854527,4997,98
111,-0.0132906939834,4998,98
112,-0.0133017329499,4999,98
113,-0.0133237382397,5000,98
114,-0.0133565673605,5001,98
115,-0.0133783388883,5002,98
116,-0.0133891887963,5003,98
117,-0.0134108234197,5004,98
118,-0.0134216044098,5005,98
119,-0.0134538151324,5006,98
120,-0.013475175947,5007,98
121,-0.0134964464232,5008,98
122,-0.0135176265612,5009,98
123,-0.0135387172922,5010,98
124,-0.0135492309928,5011,98
125,-0.013580632396,5012,98
126,-0.0136014521122,5013,98
127,-0.0136221824214,5014,98
128,-0.0136428195983,5015,98
129,-0.0136633645743,5016,98
130,-0.0136838136241,5017,98
131,-0.0137041695416,5018,98
132,-0.0137143116444,5019,98
133,-0.0137345222756,5020,98
134,-0.0137546369806,5021,98
135,-0.0137746492401,5022,98
136,-0.0137945609167,5023,98
137,-0.0138143701479,5024,98
138,-0.0138242356479,5025,98
139,-0.0138536728919,5026,98
140,-0.0138634303585,5027,98
141,-0.0138828633353,5028,98
142,-0.0139021845534,5029,98
143,-0.0139309540391,5030,98
144,-0.0139499865472,5031,98
145,-0.0139688989148,5032,98
146,-0.0139783099294,5033,98
147,-0.013997037895,5034,98
148,-0.0140063548461,5035,98
149,-0.0140248928219,5036,98
150,-0.0140524571761,5037,98
151,-0.0140706673265,5038,98
152,-0.0140887415037,5039,98
153,-0.0140977278352,5040,98
154,-0.0141155933961,5041,98
155,-0.014142125845,5042,98
156,-0.0141508951783,5043,98
157,-0.0141769861802,5044,98
158,-0.0141941905022,5045,98
159,-0.0142112439498,5046,98
160,-0.0142281381413,5047,98
161,-0.0142365265638,5048,98
162,-0.0142614515498,5049,98
163,-0.0142696788535,5050,98
164,-0.0142860095948,5051,98
165,-0.0142941130325,5052,98
166,-0.014318167232,5053,98
167,-0.0143339904025,5054,98
168,-0.0143418386579,5055,98
169,-0.0143574019894,5056,98
170,-0.0143804149702,5057,98
171,-0.014387995936,5058,98
172,-0.014410469681,5059,98
173,-0.0144178709015,5060,98
174,-0.0144325336441,5061,98
175,-0.0144541803747,5062,98
176,-0.0144683755934,5063,98
177,-0.0144754024222,5064,98
178,-0.0144893126562,5065,98
179,-0.0144961969927,5066,98
180,-0.0145165594295,5067,98
181,-0.0145298922434,5068,98
182,-0.014536485076,5069,98
183,-0.0145559711382,5070,98
184,-0.0145687134936,5071,98
185,-0.0145812584087,5072,98
186,-0.0145936058834,5073,98
187,-0.0145997032523,5074,98
188,-0.0146176973358,5075,98
189,-0.0146294413134,5076,98
190,-0.0146352387965,5077,98
191,-0.0146523239091,5078,98
192,-0.0146634615958,5079,98
193,-0.014668953605,5080,98
194,-0.0146797867492,5081,98
195,-0.0146851260215,5082,98
196,-0.014700839296,5083,98
197,-0.0147110586986,5084,98
198,-0.0147160915658,5085,98
199,-0.0147260045633,5086,98
200,-0.0147404894233,5087,98
201,-0.0147498901933,5088,98
202,-0.0147590860724,5089,98
203,-0.0147636076435,5090,98
204,-0.0147768640891,5091,98
205,-0.0147811817005,5092,98
206,-0.0147938244045,5093,98
207,-0.0147979352623,5094,98
208,-0.0148060061038,5095,98
209,-0.0148138720542,5096,98
210,-0.0148215331137,5097,98
211,-0.0148289911449,5098,98
212,-0.0148326428607,5099,98
213,-0.014843294397,5100,98
214,-0.0148501405492,5101,98
215,-0.0148534877226,5102,98
216,-0.0148632274941,5103,98
217,-0.0148694654927,5104,98
218,-0.0148755004629,5105,98
219,-0.014878442511,5106,98
220,-0.0148869659752,5107,98
221,-0.0148897059262,5108,98
222,-0.0148950358853,5109,98
223,-0.0149001618847,5110,98
224,-0.0149050867185,5111,98
225,-0.0149074736983,5112,98
226,-0.014914332889,5113,98
227,-0.0149165168405,5114,98
228,-0.0149227734655,5115,98
229,-0.0149266915396,5116,98
230,-0.0149285774678,5117,98
231,-0.0149339269847,5118,98
232,-0.014937245287,5119,98
233,-0.0149403614923,5120,98
234,-0.0149418432266,5121,98
235,-0.0149459913373,5122,98
236,-0.0149472728372,5123,98
237,-0.0149496886879,5124,98
238,-0.0149519043043,5125,98
239,-0.0149529362097,5126,98
240,-0.0149548500776,5127,98
241,-0.0149573460221,5128,98
242,-0.0149587588385,5129,98
243,-0.0149593902752,5130,98
244,-0.0149605050683,5131,98
245,-0.0149617986754,5132,98
246,-0.0149621302262,5133,98
247,-0.0149628240615,5134,98
248,-0.0149630373344,5135,98
249,-0.0149630689994,5136,98
250,-0.0149628641084,5137,98
251,-0.0149626974016,5138,98
252,-0.0149618955329,5139,98
253,-0.0149615295231,5140,98
254,-0.0149611132219,5141,98
255,-0.0149595635012,5142,98
256,-0.014958283864,5143,98
257,-0.0149568049237,5144,98
258,-0.0149551294744,5145,98
259,-0.0149532556534,5146,98
260,-0.0149522460997,5147,98
261,-0.0149500779808,5148,98
262,-0.0149477152154,5149,98
263,-0.0149438008666,5150,98
264,-0.0149409491569,5151,98
265,-0.0149379028007,5152,98
266,-0.0149346627295,5153,98
267,-0.0149329714477,5154,98
268,-0.0149294445291,5155,98
269,-0.0149257257581,5156,98
270,-0.0149218169972,5157,98
271,-0.0149197904393,5158,98
272,-0.0149134332314,5159,98
273,-0.014911220409,5160,98
274,-0.0149042997509,5161,98
275,-0.0149018997326,5162,98
276,-0.0148944268003,5163,98
277,-0.0148918451741,5164,98
278,-0.0148838274181,5165,98
279,-0.0148782590404,5166,98
280,-0.0148754073307,5167,98
281,-0.0148695725948,5168,98
282,-0.0148604912683,5169,98
283,-0.0148542188108,5170,98
284,-0.0148510187864,5171,98
285,-0.0148444902152,5172,98
286,-0.0148411635309,5173,98
287,-0.0148309310898,5174,98
288,-0.014823901467,5175,98
289,-0.0148167097941,5176,98
290,-0.0148130524904,5177,98
291,-0.0148056205362,5178,98
292,-0.0147941745818,5179,98
293,-0.0147902807221,5180,98
294,-0.0147783672437,5181,98
295,-0.0147702340037,5182,98
296,-0.0147619526833,5183,98
297,-0.0147577561438,5184,98
298,-0.0147492541,5185,98
299,-0.0147406049073,5186,98
300,-0.0147318141535,5187,98
301,-0.0147228809074,5188,98
302,-0.0147138079628,5189,98
303,-0.0147045971826,5190,98
304,-0.0146952522919,5191,98
305,-0.0146905295551,5192,98
306,-0.0146809825674,5193,98
307,-0.014666415751,5194,98
308,-0.0146565437317,5195,98
309,-0.0146465431899,5196,98
310,-0.0146364178509,5197,98
311,-0.0146261677146,5198,98
312,-0.0146157937124,5199,98
313,-0.0146052995697,5200,98
314,-0.0146000059322,5201,98
315,-0.0145893301815,5202,98
316,-0.0145785361528,5203,98
317,-0.0145730935037,5204,98
318,-0.0145565923303,5205,98
319,-0.0145454462618,5206,98
320,-0.0145341847092,5207,98
321,-0.0145228076726,5208,98
322,-0.0145113160834,5209,98
323,-0.0144997118041,5210,98
324,-0.0144938658923,5211,98
325,-0.0144761614501,5212,98
326,-0.0144642163068,5213,98
327,-0.0144582008943,5214,98
328,-0.0144399851561,5215,98
329,-0.0144338589162,5216,98
330,-0.0144215170294,5217,98
331,-0.01440906059,5218,98
332,-0.0144027918577,5219,98
333,-0.0143838077784,5220,98
334,-0.0143710076809,5221,98
335,-0.0143580920994,5222,98
336,-0.0143450601026,5223,98
337,-0.0143319107592,5224,98
338,-0.0143186431378,5225,98
339,-0.0143052563071,5226,98
340,-0.0142917474732,5227,98
341,-0.0142781184986,5228,98
342,-0.0142643665895,5229,98
343,-0.0142574450001,5230,98
344,-0.0142435068265,5231,98
345,-0.0142364911735,5232,98
346,-0.0142152532935,5233,98
347,-0.0142009342089,5234,98
348,-0.0141937257722,5235,98
349,-0.0141792120412,5236,98
350,-0.0141571927816,5237,98
351,-0.0141497841105,5238,98
352,-0.0141273615882,5239,98
353,-0.0141198188066,5240,98
354,-0.0140969818458,5241,98
355,-0.014081582427,5242,98
356,-0.0140660386533,5243,98
357,-0.014058213681,5244,98
358,-0.0140345236287,5245,98
359,-0.0140265524387,5246,98
360,-0.0140105029568,5247,98
361,-0.0139943026006,5248,98
362,-0.0139861470088,5249,98
363,-0.0139614548534,5250,98
364,-0.0139448037371,5251,98
365,-0.0139279980212,5252,98
366,-0.0139195360243,5253,98
367,-0.0138939199969,5254,98
368,-0.0138853024691,5255,98
369,-0.0138679509982,5256,98
370,-0.0138416234404,5257,98
371,-0.0138327684253,5258,98
372,-0.0138059612364,5259,98
373,-0.0137969441712,5260,98
374,-0.0137787917629,5261,98
375,-0.0137604773045,5262,98
376,-0.0137512590736,5263,98
377,-0.0137233594432,5264,98
378,-0.0137045541778,5265,98
379,-0.0136855849996,5266,98
380,-0.0136760389432,5267,98
381,-0.0136568238959,5268,98
382,-0.0136374440044,5269,98
383,-0.0136080663651,5270,98
384,-0.0135882738978,5271,98
385,-0.0135783161968,5272,98
386,-0.0135582797229,5273,98
387,-0.0135380802676,5274,98
388,-0.0135074704885,5275,98
389,-0.0134971868247,5276,98
390,-0.0134868621826,5277,98
391,-0.0134660918266,5278,98
392,-0.0134451603517,5279,98
393,-0.0134134590626,5280,98
394,-0.0134028121829,5281,98
395,-0.0133813982829,5282,98
396,-0.0133489770815,5283,98
397,-0.0133380917832,5284,98
398,-0.0133051993325,5285,98
399,-0.0132941575721,5286,98
400,-0.0132607975975,5287,98
401,-0.0132383638993,5288,98
402,-0.0132157774642,5289,98
403,-0.0131930382922,5290,98
404,-0.0131816109642,5291,98
405,-0.0131586436182,5292,98
406,-0.0131355272606,5293,98
407,-0.01311226096,5294,98
408,-0.0131005719304,5295,98
409,-0.0130652841181,5296,98
410,-0.0130415754393,5297,98
411,-0.0130177214742,5298,98
412,-0.0129937222227,5299,98
413,-0.012969580479,5300,98
414,-0.0129452943802,5301,98
415,-0.0129208657891,5302,98
416,-0.0128962965682,5303,98
417,-0.0128839574754,5304,98
418,-0.0128467353061,5305,98
419,-0.0128217451274,5306,98
420,-0.0128091974184,5307,98
421,-0.0127839995548,5308,98
422,-0.0127713475376,5309,98
423,-0.0127331865951,5310,98
424,-0.012707574293,5311,98
425,-0.0126818250865,5312,98
426,-0.0126559408382,5313,98
427,-0.0126299187541,5314,98
428,-0.0126037597656,5315,98
429,-0.0125774657354,5316,98
430,-0.0125510348007,5317,98
431,-0.0125244688243,5318,98
432,-0.0124977668747,5319,98
433,-0.0124709289521,5320,98
434,-0.0124439550564,5321,98
435,-0.0124304164201,5322,98
436,-0.0124168451875,5323,98
437,-0.0123759247363,5324,98
438,-0.0123484740034,5325,98
439,-0.0123208872974,5326,98
440,-0.012307042256,5327,98
441,-0.0122653022408,5328,98
442,-0.0122373048216,5329,98
443,-0.0122091695666,5330,98
444,-0.0121950497851,5331,98
445,-0.0121524808928,5332,98
446,-0.012123930268,5333,98
447,-0.0120952399448,5334,98
448,-0.0120664108545,5335,98
449,-0.0120374439284,5336,98
450,-0.0120229069144,5337,98
451,-0.0119937285781,5338,98
452,-0.0119644096121,5339,98
453,-0.0119496984407,5340,98
454,-0.0119053516537,5341,98
455,-0.0118756098673,5342,98
456,-0.0118457283825,5343,98
457,-0.0118307359517,5344,98
458,-0.0117855425924,5345,98
459,-0.0117704067379,5346,98
460,-0.0117247896269,5347,98
461,-0.0116941984743,5348,98
462,-0.0116788521409,5349,98
463,-0.0116325970739,5350,98
464,-0.0116015840322,5351,98
465,-0.0115860253572,5352,98
466,-0.0115548009053,5353,98
467,-0.0115391351283,5354,98
468,-0.0114919273183,5355,98
469,-0.0114602800459,5356,98
470,-0.0114444028586,5357,98
471,-0.0113965645432,5358,98
472,-0.0113644981757,5359,98
473,-0.0113322930411,5360,98
474,-0.011299948208,5361,98
475,-0.0112674655393,5362,98
476,-0.0112511720508,5363,98
477,-0.0112184844911,5364,98
478,-0.0111691942438,5365,98
479,-0.0111361611634,5366,98
480,-0.0111195947975,5367,98
481,-0.0110863596201,5368,98
482,-0.0110529884696,5369,98
483,-0.0110362526029,5370,98
484,-0.0110026812181,5371,98
485,-0.0109520703554,5372,98
486,-0.0109181627631,5373,98
487,-0.0109011586756,5374,98
488,-0.0108499471098,5375,98
489,-0.0108156399801,5376,98
490,-0.0107984365895,5377,98
491,-0.0107466271147,5378,98
492,-0.0107119223103,5379,98
493,-0.0106945186853,5380,98
494,-0.0106421103701,5381,98
495,-0.0106245744973,5382,98
496,-0.0106070069596,5383,98
497,-0.0105717666447,5384,98
498,-0.0105186551809,5385,98
499,-0.0104830805212,5386,98
500,-0.0104652410373,5387,98
501,-0.0104115214199,5388,98
502,-0.0103755369782,5389,98
503,-0.0103394119069,5390,98
504,-0.0103212986141,5391,98
505,-0.0102849649265,5392,98
506,-0.0102484887466,5393,98
507,-0.0102118682116,5394,98
508,-0.0101751051843,5395,98
509,-0.0101196849719,5396,98
510,-0.0101011367515,5397,98
511,-0.0100639276206,5398,98
512,-0.0100265638903,5399,98
513,-0.0100078256801,5400,98
0,-0.0100114643574,4875,99
1,-0.0100601064041,4876,99
2,-0.0100844074041,4877,99
3,-0.0101572349668,4878,99
4,-0.0102057261392,4879,99
5,-0.0102541707456,4880,99
6,-0.0102783758193,4881,99
7,-0.0103509258479,4882,99
8,-0.0103750880808,4883,99
9,-0.0103992400691,4884,99
10,-0.0104716354981,4885,99
11,-0.0104957474396,4886,99
12,-0.0105680273846,4887,99
13,-0.0106161693111,4888,99
14,-0.0106642767787,4889,99
15,-0.010712348856,4890,99
16,-0.0107363732532,4891,99
17,-0.0108083961532,4892,99
18,-0.0108563704416,4893,99
19,-0.01088034641,4894,99
20,-0.0109522296116,4895,99
21,-0.0109761757776,4896,99
22,-0.0110479714349,4897,99
23,-0.0110718887299,4898,99
24,-0.0110957995057,4899,99
25,-0.0111674880609,4900,99
26,-0.0112152472138,4901,99
27,-0.0112629784271,4902,99
28,-0.0113106835634,4903,99
29,-0.0113583616912,4904,99
30,-0.0114060128108,4905,99
31,-0.0114298285916,4906,99
32,-0.0115012358874,4907,99
33,-0.0115250246599,4908,99
34,-0.011596351862,4909,99
35,-0.0116201136261,4910,99
36,-0.0116913579404,4911,99
37,-0.0117388209328,4912,99
38,-0.0117625407875,4913,99
39,-0.011809960939,4914,99
40,-0.0118573522195,4915,99
41,-0.0119047136977,4916,99
42,-0.011928383261,4917,99
43,-0.0119993481785,4918,99
44,-0.0120466183871,4919,99
45,-0.0120938587934,4920,99
46,-0.0121410666034,4921,99
47,-0.0121882408857,4922,99
48,-0.0122353816405,4923,99
49,-0.012258939445,4924,99
50,-0.012306028977,4925,99
51,-0.0123765943572,4926,99
52,-0.0124235926196,4927,99
53,-0.0124705526978,4928,99
54,-0.0124940183014,4929,99
55,-0.0125174745917,4930,99
56,-0.0125877819955,4931,99
57,-0.0126111973077,4932,99
58,-0.0126813799143,4933,99
59,-0.0127281136811,4934,99
60,-0.0127514638007,4935,99
61,-0.0128214452416,4936,99
62,-0.0128680402413,4937,99
63,-0.0129145868123,4938,99
64,-0.0129610840231,4939,99
65,-0.0129843140021,4940,99
66,-0.0130307348445,4941,99
67,-0.0130771035329,4942,99
68,-0.0131465559825,4943,99
69,-0.0131696788594,4944,99
70,-0.0132158817723,4945,99
71,-0.0132620269433,4946,99
72,-0.0133081143722,4947,99
73,-0.0133541403338,4948,99
74,-0.0134001048282,4949,99
75,-0.0134460069239,4950,99
76,-0.0134918447584,4951,99
77,-0.013537616469,4952,99
78,-0.0135604767129,4953,99
79,-0.0136061469093,4954,99
80,-0.0136745218188,4955,99
81,-0.0137200159952,4956,99
82,-0.0137427356094,4957,99
83,-0.0138107854873,4958,99
84,-0.0138334305957,4959,99
85,-0.0138786640018,4960,99
86,-0.0139238191769,4961,99
87,-0.0139688942581,4962,99
88,-0.0140138883144,4963,99
89,-0.0140588004142,4964,99
90,-0.0141036277637,4965,99
91,-0.0141483703628,4966,99
92,-0.0141930272803,4967,99
93,-0.0142375947908,4968,99
94,-0.014282071963,4969,99
95,-0.0143264587969,4970,99
96,-0.0143707524985,4971,99
97,-0.0143928639591,4972,99
98,-0.0144370160997,4973,99
99,-0.0144810713828,4974,99
100,-0.0145250279456,4975,99
101,-0.0145469689742,4976,99
102,-0.0146126430482,4977,99
103,-0.0146562978625,4978,99
104,-0.0146780861542,4979,99
105,-0.0147432936355,4980,99
106,-0.0147649757564,4981,99
107,-0.0148298619315,4982,99
108,-0.0148729821667,4983,99
109,-0.0149159915745,4984,99
110,-0.014958887361,4985,99
111,-0.0150016695261,4986,99
112,-0.0150443362072,4987,99
113,-0.0150868855417,4988,99
114,-0.0151081159711,4989,99
115,-0.0151504874229,4990,99
116,-0.0151927387342,4991,99
117,-0.0152138182893,4992,99
118,-0.0152558851987,4993,99
119,-0.0153187541291,4994,99
120,-0.0153605090454,4995,99
121,-0.0153813390061,4996,99
122,-0.0154436379671,4997,99
123,-0.0154850082472,4998,99
124,-0.0155262472108,4999,99
125,-0.0155673557892,5000,99
126,-0.0156083293259,5001,99
127,-0.0156491696835,5002,99
128,-0.0156898722053,5003,99
129,-0.0157101731747,5004,99
130,-0.0157506708056,5005,99
131,-0.0157910306007,5006,99
132,-0.0158312506974,5007,99
133,-0.015851309523,5008,99
134,-0.0159112680703,5009,99
135,-0.0159510616213,5010,99
136,-0.0159907117486,5011,99
137,-0.0160302184522,5012,99
138,-0.0160695780069,5013,99
139,-0.0160892046988,5014,99
140,-0.0161478612572,5015,99
141,-0.0161673389375,5016,99
142,-0.0162061862648,5017,99
143,-0.0162641722709,5018,99
144,-0.0162834264338,5019,99
145,-0.0163218211383,5020,99
146,-0.0163409616798,5021,99
147,-0.0163791291416,5022,99
148,-0.0164360925555,5023,99
149,-0.0164550039917,5024,99
150,-0.0165115073323,5025,99
151,-0.0165489837527,5026,99
152,-0.0165863055736,5027,99
153,-0.0166049078107,5028,99
154,-0.0166604816914,5029,99
155,-0.0166789274663,5030,99
156,-0.0167340319604,5031,99
157,-0.0167705714703,5032,99
158,-0.016806954518,5033,99
159,-0.0168250873685,5034,99
160,-0.0168431792408,5035,99
161,-0.0168972201645,5036,99
162,-0.0169330500066,5037,99
163,-0.0169687215239,5038,99
164,-0.0169864967465,5039,99
165,-0.0170395839959,5040,99
166,-0.0170572008938,5041,99
167,-0.0171098150313,5042,99
168,-0.0171446911991,5043,99
169,-0.0171794071794,5044,99
170,-0.0171967055649,5045,99
171,-0.0172311831266,5046,99
172,-0.0172655005008,5047,99
173,-0.0173166785389,5048,99
174,-0.0173505973071,5049,99
175,-0.0173674970865,5050,99
176,-0.0173843558878,5051,99
177,-0.0174346975982,5052,99
178,-0.0174513980746,5053,99
179,-0.0174846798182,5054,99
180,-0.0175343044102,5055,99
181,-0.017550766468,5056,99
182,-0.0175835695118,5057,99
183,-0.0176324732602,5058,99
