,amplitude,tstep,vfp
0,-0.0100336791947,4162,104
1,-0.0100967008621,4163,104
2,-0.0101591926068,4164,104
3,-0.0102211562917,4165,104
4,-0.0102825956419,4166,104
5,-0.0103435106575,4167,104
6,-0.0104039032012,4168,104
7,-0.0104637769982,4169,104
8,-0.0105231339112,4170,104
9,-0.0105819767341,4171,104
10,-0.0106112053618,4172,104
11,-0.0106403063983,4173,104
12,-0.0107268458232,4174,104
13,-0.0107554392889,4175,104
14,-0.010812247172,4176,104
15,-0.0108965188265,4177,104
16,-0.0109520787373,4178,104
17,-0.0110071450472,4179,104
18,-0.0110617205501,4180,104
19,-0.0111158099025,4181,104
20,-0.011169414036,4182,104
21,-0.011222537607,4183,104
22,-0.0112751824781,4184,104
23,-0.0113013274968,4185,104
24,-0.0113532627001,4186,104
25,-0.0114047266543,4187,104
26,-0.0114302840084,4188,104
27,-0.0114810504019,4189,104
28,-0.0115563357249,4190,104
29,-0.011605954729,4191,104
30,-0.0116551192477,4192,104
31,-0.0117038330063,4193,104
32,-0.0117280213162,4194,104
33,-0.0117760654539,4195,104
34,-0.011847300455,4196,104
35,-0.0118942400441,4197,104
36,-0.0119175473228,4198,104
37,-0.0119868163019,4199,104
38,-0.0120096895844,4200,104
39,-0.012055114843,4201,104
40,-0.0121001135558,4202,104
41,-0.0121446866542,4203,104
42,-0.0121668139473,4204,104
43,-0.012232565321,4205,104
44,-0.0122542725876,4206,104
45,-0.012297373265,4207,104
46,-0.0123612433672,4208,104
47,-0.0124033065513,4209,104
48,-0.0124449562281,4210,104
49,-0.0124861951917,4211,104
50,-0.0125270243734,4212,104
51,-0.0125674437732,4213,104
52,-0.0125875007361,4214,104
53,-0.0126470597461,4215,104
54,-0.0126862563193,4216,104
55,-0.0127057023346,4217,104
56,-0.0127250459045,4218,104
57,-0.0127824684605,4219,104
58,-0.0128202410415,4220,104
59,-0.0128389745951,4221,104
60,-0.0128761380911,4222,104
61,-0.0129311187193,4223,104
62,-0.0129672624171,4224,104
63,-0.0129851810634,4225,104
64,-0.0130383223295,4226,104
65,-0.0130732366815,4227,104
66,-0.0131077393889,4228,104
67,-0.0131248356774,4229,104
68,-0.0131587171927,4230,104
69,-0.0131921824068,4231,104
70,-0.0132415983826,4232,104
71,-0.0132578602061,4233,104
72,-0.0132900681347,4234,104
73,-0.0133218541741,4235,104
74,-0.0133532136679,4236,104
75,-0.0133687332273,4237,104
76,-0.0134146511555,4238,104
77,-0.0134447235614,4239,104
78,-0.0134743610397,4240,104
79,-0.0135035617277,4241,104
80,-0.0135323228315,4242,104
81,-0.0135606424883,4243,104
82,-0.01357463561,4244,104
83,-0.0136159453541,4245,104
84,-0.0136429239064,4246,104
85,-0.0136562427506,4247,104
86,-0.0136825405061,4248,104
87,-0.0136955184862,4249,104
88,-0.0137211289257,4250,104
89,-0.0137586798519,4251,104
90,-0.0137831354514,4252,104
91,-0.0138071225956,4253,104
92,-0.0138189410791,4254,104
93,-0.0138422222808,4255,104
94,-0.0138762556016,4256,104
95,-0.0138873616233,4257,104
96,-0.0139092151076,4258,104
97,-0.0139410961419,4259,104
98,-0.0139617454261,4260,104
99,-0.0139718884602,4261,104
100,-0.0140015883371,4262,104
101,-0.0140112442896,4263,104
102,-0.0140207773075,4264,104
103,-0.0140394773334,4265,104
104,-0.0140576865524,4266,104
105,-0.0140840774402,4267,104
106,-0.0141010545194,4268,104
107,-0.0141175379977,4269,104
108,-0.0141335260123,4270,104
109,-0.0141490194947,4271,104
110,-0.0141640184447,4272,104
111,-0.0141785237938,4273,104
112,-0.014192535542,4274,104
113,-0.0142060555518,4275,104
114,-0.0142190838233,4276,104
115,-0.0142316222191,4277,104
116,-0.0142377074808,4278,104
117,-0.0142495129257,4279,104
118,-0.0142608322203,4280,104
119,-0.0142663102597,4281,104
120,-0.014276904054,4282,104
121,-0.0142918955535,4283,104
122,-0.0143012953922,4284,104
123,-0.0143102230504,4285,104
124,-0.0143186822534,4286,104
125,-0.0143227372319,4287,104
126,-0.0143342120573,4288,104
127,-0.0143378078938,4289,104
128,-0.0143446605653,4290,104
129,-0.014351063408,4291,104
130,-0.0143598364666,4292,104
131,-0.01436254289,4293,104
132,-0.0143676325679,4294,104
133,-0.0143722947687,4295,104
134,-0.014376536943,4296,104
135,-0.0143785020337,4297,104
136,-0.0143837872893,4298,104
137,-0.0143868084997,4299,104
138,-0.0143894376233,4300,104
139,-0.0143906064332,4301,104
140,-0.0143926599994,4302,104
141,-0.0143950423226,4303,104
142,-0.0143956551328,4304,104
143,-0.0143969589844,4305,104
144,-0.0143973957747,4306,104
145,-0.0143974963576,4307,104
146,-0.0143974237144,4308,104
147,-0.0143970372155,4309,104
148,-0.0143967261538,4310,104
149,-0.0143953347579,4311,104
150,-0.0143940364942,4312,104
151,-0.0143924532458,4313,104
152,-0.0143915573135,4314,104
153,-0.0143895642832,4315,104
154,-0.0143860885873,4316,104
155,-0.014383463189,4317,104
156,-0.0143820606172,4318,104
157,-0.0143775139004,4319,104
158,-0.0143742104992,4320,104
159,-0.0143724810332,4321,104
160,-0.0143669964746,4322,104
161,-0.0143650742248,4323,104
162,-0.0143610965461,4324,104
163,-0.0143569493666,4325,104
164,-0.0143526410684,4326,104
165,-0.0143504301086,4327,104
166,-0.0143435867503,4328,104
167,-0.0143388612196,4329,104
168,-0.0143340155482,4330,104
169,-0.0143290609121,4331,104
170,-0.0143265454099,4332,104
171,-0.014318860136,4333,104
172,-0.0143136335537,4334,104
173,-0.0143109932542,4335,104
174,-0.0143029764295,4336,104
175,-0.0143002765253,4337,104
176,-0.0142921060324,4338,104
177,-0.0142893632874,4339,104
178,-0.014283856377,4340,104
179,-0.0142810931429,4341,104
180,-0.0142727820203,4342,104
181,-0.0142700076103,4343,104
182,-0.0142644569278,4344,104
183,-0.0142589109018,4345,104
184,-0.0142506174743,4346,104
185,-0.0142478626221,4347,104
186,-0.0142396418378,4348,104
187,-0.0142342066392,4349,104
188,-0.0142288124189,4350,104
189,-0.0142261339352,4351,104
190,-0.0142181757838,4352,104
191,-0.0142155522481,4353,104
192,-0.0142103508115,4354,104
193,-0.0142077757046,4355,104
194,-0.0142001537606,4356,104
195,-0.0141951655969,4357,104
196,-0.0141902565956,4358,104
197,-0.0141878323629,4359,104
198,-0.0141830472276,4360,104
199,-0.0141760325059,4361,104
200,-0.014171468094,4362,104
201,-0.014166995883,4363,104
202,-0.0141647951677,4364,104
203,-0.0141604654491,4365,104
204,-0.014154151082,4366,104
205,-0.0141500607133,4367,104
206,-0.0141460672021,4368,104
207,-0.0141441067681,4369,104
208,-0.0141402594745,4370,104
209,-0.0141365071759,4371,104
210,-0.0141346668825,4372,104
211,-0.0141310570762,4373,104
212,-0.0141275385395,4374,104
213,-0.0141224283725,4375,104
214,-0.0141191305593,4376,104
215,-0.0141159174964,4377,104
216,-0.0141143416986,4378,104
217,-0.0141097288579,4379,104
218,-0.0141067449003,4380,104
219,-0.0141038298607,4381,104
220,-0.0141009790823,4382,104
221,-0.0140981869772,4383,104
222,-0.0140968114138,4384,104
223,-0.0140940984711,4385,104
224,-0.0140927592292,4386,104
225,-0.0140901114792,4387,104
226,-0.0140862073749,4388,104
227,-0.0140849202871,4389,104
228,-0.0140823638067,4390,104
229,-0.01407982409,4391,104
230,-0.0140760298818,4392,104
231,-0.014073501341,4393,104
232,-0.014070963487,4394,104
233,-0.0140684088692,4395,104
234,-0.0140658291057,4396,104
235,-0.0140632176772,4397,104
236,-0.0140605652705,4398,104
237,-0.014059221372,4399,104
238,-0.0140564916655,4400,104
239,-0.0140536995605,4401,104
240,-0.0140508366749,4402,104
241,-0.0140478946269,4403,104
242,-0.0140463905409,4404,104
243,-0.0140417357907,4405,104
244,-0.0140401320532,4406,104
245,-0.0140351504087,4407,104
246,-0.0140316756442,4408,104
247,-0.0140280686319,4409,104
248,-0.0140243181959,4410,104
249,-0.0140204178169,4411,104
250,-0.0140163572505,4412,104
251,-0.0140142645687,4413,104
252,-0.0140099469572,4414,104
253,-0.0140054486692,4415,104
254,-0.0140031278133,4416,104
255,-0.013998339884,4417,104
256,-0.0139933489263,4418,104
257,-0.0139854643494,4419,104
258,-0.0139799294993,4420,104
259,-0.013977075927,4421,104
260,-0.0139711908996,4422,104
261,-0.0139650627971,4423,104
262,-0.0139586832374,4424,104
263,-0.0139520466328,4425,104
264,-0.0139415934682,4426,104
265,-0.0139342816547,4427,104
266,-0.0139266876504,4428,104
267,-0.0139227835461,4429,104
268,-0.0139147555456,4430,104
269,-0.0139064304531,4431,104
270,-0.0138978026807,4432,104
271,-0.0138888666406,4433,104
272,-0.0138842817396,4434,104
273,-0.013870052062,4435,104
274,-0.0138601632789,4436,104
275,-0.0138499476016,4437,104
276,-0.0138447163627,4438,104
277,-0.0138340042904,4439,104
278,-0.0138173056766,4440,104
279,-0.0138115696609,4441,104
280,-0.0137938465923,4442,104
281,-0.0137877669185,4443,104
282,-0.0137753458694,4444,104
283,-0.0137625755742,4445,104
284,-0.0137494541705,4446,104
285,-0.0137359797955,4447,104
286,-0.0137291103601,4448,104
287,-0.0137079721317,4449,104
288,-0.0136934351176,4450,104
289,-0.013678544201,4451,104
290,-0.0136632984504,4452,104
291,-0.0136476960033,4453,104
292,-0.0136397620663,4454,104
293,-0.0136154294014,4455,104
294,-0.0135987671092,4456,104
295,-0.0135817537084,4457,104
296,-0.0135643910617,4458,104
297,-0.0135466801003,4459,104
298,-0.0135376956314,4460,104
299,-0.0135286245495,4461,104
300,-0.0135102253407,4462,104
301,-0.0134819895029,4463,104
302,-0.0134627446532,4464,104
303,-0.0134431663901,4465,104
304,-0.0134332533926,4466,104
305,-0.0134030235931,4467,104
306,-0.0133824655786,4468,104
307,-0.0133615871891,4469,104
308,-0.0133403940126,4470,104
309,-0.0133188888431,4471,104
310,-0.0133080212399,4472,104
311,-0.0132749611512,4473,104
312,-0.0132525470108,4474,104
313,-0.0132412295789,4475,104
314,-0.0132183749229,4476,104
315,-0.0132068404928,4477,104
316,-0.0131718087941,4478,104
317,-0.0131599921733,4479,104
318,-0.013136152178,4480,104
319,-0.0130998846143,4481,104
320,-0.0130753740668,4482,104
321,-0.013050605543,4483,104
322,-0.0130255818367,4484,104
323,-0.0130129754543,4485,104
324,-0.0129875782877,4486,104
325,-0.0129490271211,4487,104
326,-0.0129360575229,4488,104
327,-0.0129099441692,4489,104
328,-0.0128836007789,4490,104
329,-0.0128570320085,4491,104
330,-0.0128302425146,4492,104
331,-0.012816766277,4493,104
332,-0.0127896526828,4494,104
333,-0.0127485860139,4495,104
334,-0.0127209508792,4496,104
335,-0.0127070564777,4497,104
336,-0.01266507525,4498,104
337,-0.0126509834081,4499,104
338,-0.0126084163785,4500,104
339,-0.0125941317528,4501,104
340,-0.0125654218718,4502,104
341,-0.0125365257263,4503,104
342,-0.012492836453,4504,104
343,-0.0124781820923,4505,104
344,-0.0124634820968,4506,104
345,-0.012419112958,4507,104
346,-0.0123893115669,4508,104
347,-0.0123593332246,4509,104
348,-0.0123291769996,4510,104
349,-0.0123140327632,4511,104
350,-0.0122683374211,4512,104
351,-0.0122376531363,4513,104
352,-0.0122067928314,4514,104
353,-0.0121912965551,4515,104
354,-0.0121445422992,4516,104
355,-0.0121131474152,4517,104
356,-0.0120815737173,4518,104
357,-0.0120657188818,4519,104
358,-0.0120338704437,4520,104
359,-0.0120018357411,4521,104
360,-0.0119696129113,4522,104
361,-0.0119371991605,4523,104
362,-0.0119045935571,4524,104
363,-0.0118717895821,4525,104
364,-0.0118387853727,4526,104
365,-0.0118222068995,4527,104
366,-0.0117721604183,4528,104
367,-0.0117385322228,4529,104
368,-0.0117046879604,4530,104
369,-0.0116706220433,4531,104
370,-0.0116535043344,4532,104
371,-0.0116018075496,4533,104
372,-0.0115844579414,4534,104
373,-0.0115495789796,4535,104
374,-0.0115320477635,4536,104
375,-0.0114790806547,4537,104
376,-0.0114434510469,4538,104
377,-0.0114255389199,4539,104
378,-0.0113714002073,4540,104
379,-0.0113349677995,4541,104
380,-0.0113166468218,4542,104
381,-0.011261257343,4543,104
382,-0.0112239662558,4544,104
383,-0.011186376214,4545,104
384,-0.0111484797671,4546,104
385,-0.0111102722585,4547,104
386,-0.0110910497606,4548,104
387,-0.0110328970477,4549,104
388,-0.0110133485869,4550,104
389,-0.010993716307,4551,104
390,-0.0109541974962,4552,104
391,-0.0108942743391,4553,104
392,-0.0108741242439,4554,104
393,-0.0108131384477,4555,104
394,-0.010792628862,4556,104
395,-0.0107305441052,4557,104
396,-0.0106886858121,4558,104
397,-0.0106464456767,4559,104
398,-0.0106038171798,4560,104
399,-0.0105823567137,4561,104
400,-0.0105391386896,4562,104
401,-0.0104955211282,4563,104
402,-0.0104293348268,4564,104
403,-0.0104070687667,4565,104
404,-0.0103846993297,4566,104
405,-0.0103396493942,4567,104
406,-0.0102712893859,4568,104
407,-0.0102482922375,4569,104
408,-0.0102019775659,4570,104
409,-0.0101317055523,4571,104
410,-0.0100843198597,4572,104
411,-0.010060464032,4573,104
412,-0.0100124282762,4574,104
413,-0.0100208427757,4872,104
414,-0.0100818034261,4873,104
415,-0.0101120769978,4874,104
416,-0.0102020427585,4875,104
417,-0.0102317379788,4876,104
418,-0.0103199118748,4877,104
419,-0.0103779109195,4878,104
420,-0.0104352617636,4879,104
421,-0.0104636885226,4880,104
422,-0.0105479424819,4881,104
423,-0.0106032360345,4882,104
424,-0.0106306131929,4883,104
425,-0.0106848143041,4884,104
426,-0.0107382647693,4885,104
427,-0.0107909468934,4886,104
428,-0.0108169950545,4887,104
429,-0.0108939353377,4888,104
430,-0.0109442034736,4889,104
431,-0.010993632488,4890,104
432,-0.0110422046855,4891,104
433,-0.0110899005085,4892,104
434,-0.0111367041245,4893,104
435,-0.0111597655341,4894,104
436,-0.0112275658175,4895,104
437,-0.011271590367,4896,104
438,-0.0113146565855,4897,104
439,-0.0113358236849,4898,104
440,-0.0113567458466,4899,104
441,-0.0114180166274,4900,104
442,-0.0114575969055,4901,104
443,-0.0114770010114,4902,104
444,-0.0115336496383,4903,104
445,-0.0115520041436,4904,104
446,-0.0116054583341,4905,104
447,-0.0116397347301,4906,104
448,-0.0116564603522,4907,104
449,-0.0117049627006,4908,104
450,-0.0117358863354,4909,104
451,-0.0117509197444,4910,104
452,-0.0117942858487,4911,104
453,-0.0118217365816,4912,104
454,-0.0118350191042,4913,104
455,-0.0118606938049,4914,104
456,-0.0118730813265,4915,104
457,-0.0118969511241,4916,104
458,-0.0119304712862,4917,104
459,-0.0119512788951,4918,104
460,-0.0119708431885,4919,104
461,-0.0119801564142,4920,104
462,-0.012006203644,4921,104
463,-0.012021982111,4922,104
464,-0.0120364800096,4923,104
465,-0.0120496889576,4924,104
466,-0.0120616015047,4925,104
467,-0.0120670692995,4926,104
468,-0.0120770232752,4927,104
469,-0.0120894862339,4928,104
470,-0.0120929796249,4929,104
471,-0.0120961405337,4930,104
472,-0.0121014630422,4931,104
473,-0.0121054500341,4932,104
474,-0.0121080940589,4933,104
475,-0.012109534815,4934,104
476,-0.0121093383059,4935,104
477,-0.0121067166328,4936,104
478,-0.0121032679453,4937,104
479,-0.0120984558016,4938,104
480,-0.012092275545,4939,104
481,-0.012088672258,4940,104
482,-0.0120758051053,4941,104
483,-0.0120708290488,4942,104
484,-0.0120538398623,4943,104
485,-0.0120474891737,4944,104
486,-0.0120407938957,4945,104
487,-0.0120186423883,4946,104
488,-0.0120021533221,4947,104
489,-0.0119933914393,4948,104
490,-0.0119650419801,4949,104
491,-0.0119549026713,4950,104
492,-0.0119224227965,4951,104
493,-0.0118990521878,4952,104
494,-0.0118868518621,4953,104
495,-0.0118481945246,4954,104
496,-0.0118207102641,4955,104
497,-0.0118064554408,4956,104
498,-0.0117616448551,4957,104
499,-0.0117300702259,4958,104
500,-0.0117137730122,4959,104
501,-0.0116801625118,4960,104
502,-0.0116628501564,4961,104
503,-0.0116088874638,4962,104
504,-0.0115712312981,4963,104
505,-0.0115322349593,4964,104
506,-0.0115122357383,4965,104
507,-0.0114502431825,4966,104
508,-0.0114072551951,4967,104
509,-0.0113852666691,4968,104
510,-0.0113173285499,4969,104
511,-0.0112940268591,4970,104
512,-0.0112221678719,4971,104
513,-0.0111726410687,4972,104
514,-0.0111218262464,4973,104
515,-0.0110959373415,4974,104
516,-0.0110697289929,4975,104
517,-0.0109891975299,4976,104
518,-0.0109339309856,4977,104
519,-0.0109058264643,4978,104
520,-0.0108486814424,4979,104
521,-0.0107606370002,4980,104
522,-0.010700404644,4981,104
523,-0.0106389522552,4982,104
524,-0.0106077725068,4983,104
525,-0.0105124311522,4984,104
526,-0.0104473810643,4985,104
527,-0.0104144141078,4986,104
528,-0.0103137586266,4987,104
529,-0.0102452086285,4988,104
530,-0.0102105038241,4989,104
531,-0.0101402420551,4990,104
532,-0.0100688543171,4991,104
533,-0.0100327422842,4992,104
534,0.0100835021585,5389,104
535,0.0101861134171,5390,104
536,0.0102377990261,5391,104
537,0.0103419311345,5392,104
538,0.0105000333861,5393,104
539,0.0105532417074,5394,104
540,0.0107143921778,5395,104
541,0.01082309708,5396,104
542,0.0109328199178,5397,104
543,0.0109880622476,5398,104
544,0.0110993124545,5399,104
545,0.0111553194001,5400,104
546,0.0100285075605,3484,104
547,0.0100688170642,3485,104
548,0.0100888004526,3486,104
549,0.0101480549201,3487,104
550,0.0101869730279,3488,104
551,0.0102254170924,3489,104
552,0.0102633824572,3490,104
553,0.0102821839973,3491,104
554,0.0103194201365,3492,104
555,0.0103378547356,3493,104
556,0.0103743523359,3494,104
557,0.0104103516787,3495,104
558,0.0104634072632,3496,104
559,0.0104808388278,3497,104
560,0.0105323651806,3498,104
561,0.0105492826551,3499,104
562,0.0105992564932,3500,104
563,0.0106156533584,3501,104
564,0.0106640532613,3502,104
565,0.0106956586242,3503,104
566,0.0107267303392,3504,104
567,0.0107572665438,3505,104
568,0.0107723325491,3506,104
569,0.0108020594344,3507,104
570,0.0108312433586,3508,104
571,0.0108598833904,3509,104
572,0.0108739985153,3510,104
573,0.0109155224636,3511,104
574,0.0109290890396,3512,104
575,0.010968961753,3513,104
576,0.0109948534518,3514,104
577,0.0110201910138,3515,104
578,0.0110449744388,3516,104
579,0.0110571580008,3517,104
580,0.0110928732902,3518,104
581,0.0111044999212,3519,104
582,0.0111273359507,3520,104
583,0.0111605469137,3521,104
584,0.0111713390797,3522,104
585,0.0111925052479,3523,104
586,0.0112131144851,3524,104
587,0.0112331686541,3525,104
588,0.0112526668236,3526,104
589,0.0112716108561,3527,104
590,0.0112900007516,3528,104
591,0.0113078383729,3529,104
592,0.0113251255825,3530,104
593,0.0113418623805,3531,104
594,0.0113580515608,3532,104
595,0.0113736940548,3533,104
596,0.0113813113421,3534,104
597,0.0114033473656,3535,104
598,0.0114104226232,3536,104
599,0.011424168013,3537,104
600,0.0114373760298,3538,104
601,0.0114437788725,3539,104
602,0.0114621892571,3540,104
603,0.0114680603147,3541,104
604,0.0114848827943,3542,104
605,0.0114954421297,3543,104
606,0.0115054808557,3544,104
607,0.0115103051066,3545,104
608,0.0115240048617,3546,104
609,0.0115324966609,3547,104
610,0.0115365516394,3548,104
611,0.011547957547,3549,104
612,0.0115549331531,3550,104
613,0.0115614095703,3551,104
614,0.0115644615144,3552,104
615,0.0115673905239,3553,104
616,0.0115754408762,3554,104
617,0.01157788001,3555,104
618,0.0115844747052,3556,104
619,0.011588270776,3557,104
620,0.0115915918723,3558,104
621,0.0115944417194,3559,104
622,0.0115968231112,3560,104
623,0.0115987416357,3561,104
624,0.0116001991555,3562,104
625,0.011601199396,3563,104
626,0.0116017460823,3564,104
627,0.0116018438712,3565,104
628,0.0116014974192,3566,104
629,0.0116011574864,3567,104
630,0.0116001497954,3568,104
631,0.0115987062454,3569,104
632,0.0115978224203,3570,104
633,0.0115945264697,3571,104
634,0.0115917986259,3572,104
635,0.0115886498243,3573,104
636,0.0115850828588,3574,104
637,0.0115811023861,3575,104
638,0.0115767121315,3576,104
639,0.0115743642673,3577,104
640,0.0115667143837,3578,104
641,0.0115611162037,3579,104
642,0.0115581676364,3580,104
643,0.0115487333387,3581,104
644,0.011545393616,3582,104
645,0.0115419570357,3583,104
646,0.0115310689434,3584,104
647,0.0115233333781,3585,104
648,0.0115193240345,3586,104
649,0.0115067344159,3587,104
650,0.0114978766069,3588,104
651,0.011493309401,3589,104
652,0.0114790601656,3590,104
653,0.0114741297439,3591,104
654,0.0114639988169,3592,104
655,0.0114481328055,3593,104
656,0.0114371133968,3594,104
657,0.011431472376,3595,104
658,0.0114140305668,3596,104
659,0.0114080440253,3597,104
660,0.0113958148286,3598,104
661,0.0113895731047,3599,104
662,0.0113768354058,3600,104
663,0.0113571006805,3601,104
664,0.0113435303792,3602,104
665,0.0113296313211,3603,104
666,0.0113154072315,3604,104
667,0.0113008609042,3605,104
668,0.0112859942019,3606,104
669,0.0112708117813,3607,104
670,0.0112553145736,3608,104
671,0.0112474495545,3609,104
672,0.0112233906984,3610,104
673,0.0112069696188,3611,104
674,0.0111986445263,3612,104
675,0.0111817698926,3613,104
