,amplitude,tstep,vfp
0,-0.0100011052564,4644,104
1,-0.0100150620565,4645,104
2,-0.0100296093151,4646,104
3,-0.0100447479635,4647,104
4,-0.0100604780018,4648,104
5,-0.0100685637444,4649,104
6,-0.0100851720199,4650,104
7,-0.0101111698896,4651,104
8,-0.0101201217622,4652,104
9,-0.0101384464651,4653,104
10,-0.0101669710129,4654,104
11,-0.0101866610348,4655,104
12,-0.0101967034861,4656,104
13,-0.01020687446,4657,104
14,-0.0102275963873,4658,104
15,-0.0102595956996,4659,104
16,-0.0102815125138,4660,104
17,-0.0102926390246,4661,104
18,-0.0103266565129,4662,104
19,-0.0103498389944,4663,104
20,-0.0103733986616,4664,104
21,-0.0103853112087,4665,104
22,-0.0104093868285,4666,104
23,-0.0104460734874,4667,104
24,-0.0104708727449,4668,104
25,-0.0104833636433,4669,104
26,-0.0105085093528,4670,104
27,-0.0105338478461,4671,104
28,-0.0105593474582,4672,104
29,-0.0105721475556,4673,104
30,-0.0106106968597,4674,104
31,-0.0106364786625,4675,104
32,-0.010662285611,4676,104
33,-0.0106880832464,4677,104
34,-0.0107138352469,4678,104
35,-0.0107395062223,4679,104
36,-0.0107650589198,4680,104
37,-0.0107904570177,4681,104
38,-0.0108156641945,4682,104
39,-0.0108406431973,4683,104
40,-0.0108653577045,4684,104
41,-0.0108897695318,4685,104
42,-0.0109018515795,4686,104
43,-0.010913843289,4687,104
44,-0.0109492409974,4688,104
45,-0.0109723098576,4689,104
46,-0.0109949139878,4690,104
47,-0.0110060311854,4691,104
48,-0.0110385902226,4692,104
49,-0.0110491644591,4693,104
50,-0.0110698705539,4694,104
51,-0.0110997594893,4695,104
52,-0.0111188609153,4696,104
53,-0.011137265712,4697,104
54,-0.0111461980268,4698,104
55,-0.0111718690023,4699,104
56,-0.0111880116165,4700,104
57,-0.0112033449113,4701,104
58,-0.011210700497,4702,104
59,-0.0112178446725,4703,104
60,-0.0112379780039,4704,104
61,-0.0112442467362,4705,104
62,-0.0112616894767,4706,104
63,-0.0112721566111,4707,104
64,-0.0112816756591,4708,104
65,-0.011290229857,4709,104
66,-0.0112978024408,4710,104
67,-0.0113012176007,4711,104
68,-0.0113099571317,4712,104
69,-0.0113123636693,4713,104
70,-0.0113180512562,4714,104
71,-0.011320556514,4715,104
72,-0.011322026141,4716,104
73,-0.011322372593,4717,104
74,-0.0113222841173,4718,104
75,-0.0113218491897,4719,104
76,-0.0113189863041,4720,104
77,-0.0113175138831,4721,104
78,-0.0113115459681,4722,104
79,-0.0113062839955,4723,104
80,-0.0113000031561,4724,104
81,-0.0112927118316,4725,104
82,-0.0112844230607,4726,104
83,-0.0112799080089,4727,104
84,-0.0112649034709,4728,104
85,-0.0112537033856,4729,104
86,-0.0112415654585,4730,104
87,-0.0112351505086,4731,104
88,-0.0112216407433,4732,104
89,-0.0112072434276,4733,104
90,-0.0111919818446,4734,104
91,-0.0111758792773,4735,104
92,-0.0111589608714,4736,104
93,-0.0111412536353,4737,104
94,-0.0111227855086,4738,104
95,-0.0111035853624,4739,104
96,-0.0110937198624,4740,104
97,-0.0110631110147,4741,104
98,-0.0110525842756,4742,104
99,-0.0110200885683,4743,104
100,-0.0109977051616,4744,104
101,-0.0109863104299,4745,104
102,-0.0109513709322,4746,104
103,-0.0109394872561,4747,104
104,-0.0109153920785,4748,104
105,-0.0108908908442,4749,104
106,-0.0108660236001,4750,104
107,-0.0108534647152,4751,104
108,-0.0108281197026,4752,104
109,-0.0107896095142,4753,104
110,-0.0107636665925,4754,104
111,-0.0107375560328,4755,104
112,-0.0107244495302,4756,104
113,-0.0106849875301,4757,104
114,-0.0106586124748,4758,104
115,-0.0106322299689,4759,104
116,-0.010605879128,4760,104
117,-0.0105796018615,4761,104
118,-0.0105665028095,4762,104
119,-0.010540409945,4763,104
120,-0.0105144893751,4764,104
121,-0.0105016054586,4765,104
122,-0.0104633187875,4766,104
123,-0.0104381460696,4767,104
124,-0.0104256784543,4768,104
125,-0.0103888083249,4769,104
126,-0.0103767104447,4770,104
127,-0.0103410566226,4771,104
128,-0.0103178620338,4772,104
129,-0.0102951657027,4773,104
130,-0.0102840149775,4774,104
131,-0.0102513981983,4775,104
132,-0.0102408165112,4776,104
133,-0.0102201113477,4777,104
134,-0.0102000413463,4778,104
135,-0.0101806335151,4779,104
136,-0.010161913,4780,104
137,-0.0101439049467,4781,104
138,-0.0101266307756,4782,104
139,-0.0101182758808,4783,104
140,-0.0101021453738,4784,104
141,-0.0100794294849,4785,104
142,-0.010072261095,4786,104
143,-0.0100519964471,4787,104
144,-0.010045661591,4788,104
145,-0.0100279366598,4789,104
146,-0.0100172022358,4790,104
147,-0.0100073441863,4791,104
148,-0.0100027471781,4792,104
149,-0.0100027313456,4813,104
150,-0.0100113442168,4814,104
151,-0.0100206192583,4815,104
152,-0.0100254975259,4816,104
153,-0.0100410515442,4817,104
154,-0.0100465314463,4818,104
155,-0.0100638046861,4819,104
156,-0.0100759770721,4820,104
157,-0.0100886393338,4821,104
158,-0.0101017607376,4822,104
159,-0.0101084830239,4823,104
160,-0.0101222302765,4824,104
161,-0.0101292477921,4825,104
162,-0.0101508200169,4826,104
163,-0.0101581700146,4827,104
164,-0.0101730842143,4828,104
165,-0.0101959211752,4829,104
166,-0.010211404413,4830,104
167,-0.0102270562202,4831,104
168,-0.0102428365499,4832,104
169,-0.0102587118745,4833,104
170,-0.0102746458724,4834,104
171,-0.0102906022221,4835,104
172,-0.0102985771373,4836,104
173,-0.0103224404156,4837,104
174,-0.0103303585202,4838,104
175,-0.010338251479,4839,104
176,-0.0103539442644,4840,104
177,-0.0103771863505,4841,104
178,-0.010392434895,4842,104
179,-0.0104074478149,4843,104
180,-0.0104221925139,4844,104
181,-0.0104366382584,4845,104
182,-0.0104507533833,4846,104
183,-0.0104576777667,4847,104
184,-0.010477877222,4848,104
185,-0.0104844076559,4849,104
186,-0.0105033405125,4850,104
187,-0.0105153834447,4851,104
188,-0.0105212209746,4852,104
189,-0.0105325151235,4853,104
190,-0.0105432830751,4854,104
191,-0.010553503409,4855,104
192,-0.0105631565675,4856,104
193,-0.0105722239241,4857,104
194,-0.0105806868523,4858,104
195,-0.0105846868828,4859,104
196,-0.0105957435444,4860,104
197,-0.0106023093686,4861,104
198,-0.010608217679,4862,104
199,-0.010610923171,4863,104
200,-0.0106180300936,4864,104
201,-0.010621917434,4865,104
202,-0.0106251202524,4866,104
203,-0.0106264632195,4867,104
204,-0.0106286322698,4868,104
205,-0.01063011121,4869,104
206,-0.0106305917725,4870,104
207,-0.0106310015544,4871,104
208,-0.0106304204091,4872,104
209,-0.0106291621923,4873,104
210,-0.0106282811612,4874,104
211,-0.0106246424839,4875,104
212,-0.0106231030077,4876,104
213,-0.0106175215915,4877,104
214,-0.0106130149215,4878,104
215,-0.0106078963727,4879,104
216,-0.0106021827087,4880,104
217,-0.0105958916247,4881,104
218,-0.0105925351381,4882,104
219,-0.0105854114518,4883,104
220,-0.0105816498399,4884,104
221,-0.0105696003884,4885,104
222,-0.010565337725,4886,104
223,-0.0105564612895,4887,104
224,-0.0105423163623,4888,104
225,-0.0105323707685,4889,104
226,-0.0105220433325,4890,104
227,-0.010516744107,4891,104
228,-0.010500353761,4892,104
229,-0.0104947378859,4893,104
230,-0.0104774823412,4894,104
231,-0.0104716075584,4895,104
232,-0.010459696874,4896,104
233,-0.0104475980625,4897,104
234,-0.0104353409261,4898,104
235,-0.0104291634634,4899,104
236,-0.0104104829952,4900,104
237,-0.0104042198509,4901,104
238,-0.0103916637599,4902,104
239,-0.0103728184476,4903,104
240,-0.0103665497154,4904,104
241,-0.0103478366509,4905,104
242,-0.010335479863,4906,104
243,-0.0103232543916,4907,104
244,-0.0103111928329,4908,104
245,-0.010299324058,4909,104
246,-0.0102876806632,4910,104
247,-0.0102762905881,4911,104
248,-0.0102651836351,4912,104
249,-0.0102597456425,4913,104
250,-0.0102491155267,4914,104
251,-0.0102439308539,4915,104
252,-0.0102338399738,4916,104
253,-0.0102241383865,4917,104
254,-0.0102103725076,4918,104
255,-0.0102017540485,4919,104
256,-0.0101936087012,4920,104
257,-0.0101859560236,4921,104
258,-0.0101788165048,4922,104
259,-0.0101754451171,4923,104
260,-0.0101691102609,4924,104
261,-0.0101633314043,4925,104
262,-0.0101557392627,4926,104
263,-0.0101514142007,4927,104
264,-0.0101494770497,4928,104
265,-0.0101460609585,4929,104
266,-0.0101432614028,4930,104
267,-0.010142095387,4931,104
268,-0.0101395444945,4932,104
269,-0.0101390117779,4933,104
270,-0.010138371028,4934,104
271,-0.0101387454197,4935,104
272,-0.0101397605613,4936,104
273,-0.0101405084133,4937,104
274,-0.0101424818859,4938,104
275,-0.0101466309279,4939,104
276,-0.010148328729,4940,104
277,-0.0101543497294,4941,104
278,-0.0101566631347,4942,104
279,-0.0101645085961,4943,104
280,-0.0101674199104,4944,104
281,-0.0101736756042,4945,104
282,-0.0101804994047,4946,104
283,-0.0101878764108,4947,104
284,-0.0101957879961,4948,104
285,-0.0102042173967,4949,104
286,-0.0102131478488,4950,104
287,-0.0102177932858,4951,104
288,-0.0102274334058,4952,104
289,-0.0102427229285,4953,104
290,-0.0102480296046,4954,104
291,-0.0102589391172,4955,104
292,-0.0102759981528,4956,104
293,-0.0102818571031,4957,104
294,-0.010299901478,4958,104
295,-0.0103060612455,4959,104
296,-0.0103185772896,4960,104
297,-0.0103313298896,4961,104
298,-0.0103442911059,4962,104
299,-0.0103574302047,4963,104
300,-0.0103707173839,4964,104
301,-0.0103841200471,4965,104
302,-0.0103976083919,4966,104
303,-0.0104043744504,4967,104
304,-0.0104247136042,4968,104
305,-0.0104382671416,4969,104
306,-0.0104517769068,4970,104
307,-0.0104585066438,4971,104
308,-0.0104718934745,4972,104
309,-0.0104917315766,4973,104
310,-0.0104982638732,4974,104
311,-0.0105111850426,4975,104
312,-0.0105175664648,4976,104
313,-0.0105363419279,4977,104
314,-0.010548514314,4978,104
315,-0.010554485023,4979,104
316,-0.0105718933046,4980,104
317,-0.0105830393732,4981,104
318,-0.0105884643272,4982,104
319,-0.0105989975855,4983,104
320,-0.01061395742,4984,104
321,-0.0106187053025,4985,104
322,-0.0106278238818,4986,104
323,-0.0106364171952,4987,104
324,-0.010648265481,4988,104
325,-0.0106519246474,4989,104
326,-0.0106587884948,4990,104
327,-0.010665028356,4991,104
328,-0.0106706218794,4992,104
329,-0.0106755485758,4993,104
330,-0.0106777539477,4994,104
331,-0.0106833139434,4995,104
332,-0.0106861153618,4996,104
333,-0.0106881707907,4997,104
334,-0.0106894625351,4998,104
335,-0.0106899756938,4999,104
336,-0.010689935647,5000,104
337,-0.0106886057183,5001,104
338,-0.0106866946444,5002,104
339,-0.0106839491054,5003,104
340,-0.0106822596863,5004,104
341,-0.0106782419607,5005,104
342,-0.010675909929,5006,104
343,-0.0106676118448,5007,104
344,-0.0106609836221,5008,104
345,-0.0106534687802,5009,104
346,-0.0106450617313,5010,104
347,-0.0106357559562,5011,104
348,-0.0106255467981,5012,104
349,-0.0106201022863,5013,104
350,-0.010608529672,5014,104
351,-0.0105894617736,5015,104
352,-0.0105826482177,5016,104
353,-0.0105683356524,5017,104
354,-0.0105451503769,5018,104
355,-0.0105369631201,5019,104
356,-0.0105199031532,5020,104
357,-0.0105019286275,5021,104
358,-0.010483042337,5022,104
359,-0.010473257862,5023,104
360,-0.0104425447062,5024,104
361,-0.0104209380224,5025,104
362,-0.0104097984731,5026,104
363,-0.0103750349954,5027,104
364,-0.0103507461026,5028,104
365,-0.0103255724534,5029,104
366,-0.0103126559407,5030,104
367,-0.0102725960314,5031,104
368,-0.0102448053658,5032,104
369,-0.0102161560208,5033,104
370,-0.0102015109733,5034,104
371,-0.0101866535842,5035,104
372,-0.0101408166811,5036,104
373,-0.0101092150435,5037,104
374,-0.0100767873228,5038,104
375,-0.0100435419008,5039,104
376,-0.010026615113,5040,104
0,0.0153091745451,4096,105
1,0.0153867052868,4097,105
2,0.0154639901593,4098,105
3,0.0155410263687,4099,105
4,0.0156178092584,4100,105
5,0.0156561024487,4101,105
6,0.0157324951142,4102,105
7,0.0158465839922,4103,105
8,0.0159223042428,4104,105
9,0.015997748822,4105,105
10,0.0160729140043,4106,105
11,0.0161103885621,4107,105
12,0.0161851234734,4108,105
13,0.016296679154,4109,105
14,0.0163706783205,4110,105
15,0.0164443738759,4111,105
16,0.0164811089635,4112,105
17,0.01651776582,4113,105
18,0.0165908485651,4114,105
19,0.0166636146605,4115,105
20,0.0167721696198,4116,105
21,0.0168441347778,4117,105
22,0.0168799944222,4118,105
23,0.0169514678419,4119,105
24,0.0170580502599,4120,105
25,0.0171286854893,4121,105
26,0.0171989742666,4122,105
27,0.0172689184546,4123,105
28,0.0173385124654,4124,105
29,0.0174077525735,4125,105
30,0.0174422394484,4126,105
31,0.0175109449774,4127,105
32,0.0175451617688,4128,105
33,0.0176133234054,4129,105
34,0.0177148766816,4130,105
35,0.0177821125835,4131,105
36,0.0178489722311,4132,105
37,0.0179154518992,4133,105
38,0.0179815515876,4134,105
39,0.0180144570768,4135,105
40,0.0180799774826,4136,105
41,0.0181451085955,4137,105
42,0.0182098466903,4138,105
43,0.0183062106371,4139,105
44,0.0183699540794,4140,105
45,0.0184016730636,4141,105
46,0.0184648111463,4142,105
47,0.0185275394469,4143,105
48,0.0185898579657,4144,105
49,0.0186208635569,4145,105
50,0.0187132507563,4146,105
51,0.0187743194401,4147,105
52,0.0188349653035,4148,105
53,0.0188951864839,4149,105
54,0.0189549792558,4150,105
55,0.0190143417567,4151,105
56,0.0190732721239,4152,105
57,0.0191317684948,4153,105
58,0.0191898252815,4154,105
59,0.0192474424839,4155,105
60,0.0193046163768,4156,105
61,0.0193330366164,4157,105
62,0.0193895418197,4158,105
63,0.0194455944002,4159,105
64,0.0195011999458,4160,105
65,0.0195563472807,4161,105
66,0.0196110401303,4162,105
67,0.0196382142603,4163,105
68,0.0196922179312,4164,105
69,0.0197723545134,4165,105
70,0.0198251977563,4166,105
71,0.0198775716126,4167,105
72,0.0199294760823,4168,105
73,0.0199552513659,4169,105
74,0.0200064443052,4170,105
75,0.0200823396444,4171,105
76,0.0201073996723,4172,105
77,0.0201571583748,4173,105
78,0.0202064346522,4174,105
79,0.020230891183,4175,105
80,0.0203035306185,4176,105
81,0.0203513447195,4177,105
82,0.0203986689448,4178,105
83,0.0204454995692,4179,105
84,0.0204918347299,4180,105
85,0.0205376725644,4181,105
86,0.02058301121,4182,105
87,0.0206054914743,4183,105
88,0.0206721816212,4184,105
89,0.0207160077989,4185,105
90,0.0207377318293,4186,105
91,0.0207807961851,4187,105
92,0.0208021383733,4188,105
93,0.0208653956652,4189,105
94,0.0208862237632,4190,105
95,0.0209479350597,4191,105
96,0.020968247205,4192,105
97,0.0210284013301,4193,105
98,0.0210678521544,4194,105
99,0.0210873801261,4195,105
100,0.0211260430515,4196,105
101,0.0211830511689,4197,105
102,0.0212203953415,4198,105
103,0.0212572086602,4199,105
104,0.0212934873998,4200,105
105,0.0213292315602,4201,105
106,0.0213469024748,4202,105
107,0.0213818401098,4203,105
108,0.0213991068304,4204,105
109,0.0214500967413,4205,105
110,0.0214668214321,4206,105
111,0.0214998628944,4207,105
112,0.0215323586017,4208,105
113,0.0215800739825,4209,105
114,0.0216111987829,4210,105
115,0.0216417685151,4211,105
116,0.0216568466276,4212,105
117,0.0216865837574,4213,105
118,0.021715765819,4214,105
119,0.0217584911734,4215,105
120,0.0217862743884,4216,105
121,0.0217999555171,4217,105
122,0.0218268930912,4218,105
123,0.0218401495367,4219,105
124,0.0218790713698,4220,105
125,0.0219043102115,4221,105
126,0.0219167154282,4222,105
127,0.0219410974532,4223,105
128,0.0219649076462,4224,105
129,0.021999547258,4225,105
130,0.0220219194889,4226,105
131,0.0220328886062,4227,105
132,0.0220649261028,4228,105
133,0.0220855586231,4229,105
134,0.0221056081355,4230,105
135,0.0221250727773,4231,105
136,0.0221439506859,4232,105
137,0.0221531689167,4233,105
138,0.0221622418612,4234,105
139,0.0221885759383,4235,105
140,0.0221970584244,4236,105
141,0.0222216174006,4237,105
142,0.0222372468561,4238,105
143,0.0222448371351,4239,105
144,0.022266715765,4240,105
145,0.0222805533558,4241,105
146,0.0222872458398,4242,105
147,0.0223064236343,4243,105
148,0.0223184581846,4244,105
149,0.0223298892379,4245,105
150,0.0223407130688,4246,105
151,0.0223458986729,4247,105
152,0.0223558135331,4248,105
153,0.0223651211709,4249,105
154,0.0223695449531,4250,105
155,0.0223819054663,4251,105
156,0.0223893783987,4252,105
157,0.0223962403834,4253,105
158,0.0224024895579,4254,105
159,0.0224081203341,4255,105
160,0.022410703823,4256,105
161,0.0224175322801,4257,105
162,0.0224213115871,4258,105
163,0.0224244706333,4259,105
164,0.0224270094186,4260,105
165,0.0224289260805,4261,105
166,0.0224296525121,4262,105
167,0.0224306359887,4263,105
168,0.0224309936166,4264,105
169,0.0224307272583,4265,105
170,0.0224303603172,4266,105
171,0.0224283207208,4267,105
172,0.0224261786789,4268,105
173,0.0224248729646,4269,105
174,0.0224200114608,4270,105
175,0.0224159825593,4271,105
176,0.022413732484,4272,105
177,0.0224060360342,4273,105
178,0.0224001165479,4274,105
179,0.022393565625,4275,105
180,0.0223863851279,4276,105
181,0.0223785713315,4277,105
182,0.0223744288087,4278,105
183,0.022370127961,4279,105
184,0.0223610512912,4280,105
185,0.0223462488502,4281,105
186,0.022335588932,4282,105
187,0.0223300214857,4283,105
188,0.0223123691976,4284,105
189,0.0222998075187,4285,105
190,0.0222866144031,4286,105
191,0.0222727861255,4287,105
192,0.0222583245486,4288,105
193,0.0222432296723,4289,105
194,0.0222275033593,4290,105
195,0.0222111418843,4291,105
196,0.02219414711,4292,105
197,0.0221854131669,4293,105
198,0.0221765208989,4294,105
199,0.0221488960087,4295,105
200,0.022129688412,4296,105
201,0.0221098512411,4297,105
202,0.0220893826336,4298,105
203,0.022068284452,4299,105
204,0.0220574978739,4300,105
205,0.0220354553312,4301,105
206,0.0220012143254,4302,105
207,0.0219776015729,4303,105
208,0.0219533648342,4304,105
209,0.0219285022467,4305,105
210,0.0219158381224,4306,105
211,0.0218769032508,4307,105
212,0.0218636132777,4308,105
213,0.021850168705,4309,105
214,0.0218089036644,4310,105
215,0.0217948388308,4311,105
216,0.0217662453651,4312,105
217,0.02172219567,4313,105
218,0.0216920636594,4314,105
219,0.0216613151133,4315,105
220,0.0216299537569,4316,105
221,0.0216140430421,4317,105
222,0.021565400064,4318,105
223,0.0215322114527,4319,105
224,0.0214984174818,4320,105
225,0.0214812941849,4321,105
226,0.0214290190488,4322,105
227,0.0214112941176,4323,105
228,0.021375393495,4324,105
229,0.0213388968259,4325,105
230,0.021320424974,4326,105
231,0.0212641209364,4327,105
232,0.0212258454412,4328,105
233,0.0211869832128,4329,105
234,0.0211673323065,4330,105
235,0.0211075022817,4331,105
236,0.0210668873042,4332,105
237,0.0210256949067,4333,105
238,0.0209839250892,4334,105
239,0.0209415834397,4335,105
240,0.0208986718208,4336,105
241,0.0208551902324,4337,105
242,0.0208111461252,4338,105
243,0.0207889135927,4339,105
244,0.0207440257072,4340,105
245,0.0207213722169,4341,105
246,0.020652577281,4342,105
247,0.0206060260534,4343,105
248,0.0205589253455,4344,105
249,0.0205112788826,4345,105
250,0.0204630922526,4346,105
251,0.0204143654555,4347,105
252,0.0203651022166,4348,105
253,0.0203153099865,4349,105
254,0.0202902145684,4350,105
255,0.0202141422778,4351,105
256,0.0201885253191,4352,105
257,0.0201108921319,4353,105
258,0.0200847573578,4354,105
259,0.0200584959239,4355,105
260,0.0199789460748,4356,105
261,0.0199252814054,4357,105
262,0.0198711194098,4358,105
263,0.0198164619505,4359,105
264,0.019761312753,4360,105
265,0.0197335556149,4361,105
266,0.0196495559067,4362,105
267,0.0195929575711,4363,105
268,0.0195358842611,4364,105
269,0.0195071697235,4365,105
270,0.019420331344,4366,105
271,0.0193911530077,4367,105
272,0.0193029362708,4368,105
273,0.0192733034492,4369,105
274,0.0192435588688,4370,105
275,0.0191536508501,4371,105
276,0.0190931614488,4372,105
277,0.0190322361887,4373,105
278,0.0189708806574,4374,105
279,0.0189400427043,4375,105
280,0.0188468936831,4376,105
281,0.0188156347722,4377,105
282,0.0187528096139,4378,105
283,0.0186578053981,4379,105
284,0.0185939669609,4380,105
285,0.0185297336429,4381,105
286,0.0184651073068,4382,105
287,0.0184000972658,4383,105
288,0.0183674488217,4384,105
289,0.0183018706739,4385,105
290,0.0182689409703,4386,105
291,0.0181696023792,4387,105
292,0.0181363075972,4388,105
293,0.0180358886719,4389,105
294,0.0179685018957,4390,105
295,0.0179007723927,4391,105
296,0.0178327057511,4392,105
297,0.0177643038332,4393,105
298,0.0176955722272,4394,105
299,0.0176265202463,4395,105
300,0.017557149753,4396,105
301,0.017522348091,4397,105
302,0.0174174848944,4398,105
303,0.0173823796213,4399,105
304,0.0173119474202,4400,105
305,0.0172412265092,4401,105
306,0.0172057598829,4402,105
307,0.0170989371836,4403,105
308,0.0170273799449,4404,105
