,amplitude,tstep,vfp
0,0.0100227482617,3354,108
1,0.0100414277986,3355,108
2,0.0100598623976,3356,108
3,0.0101136863232,3357,108
4,0.0101483333856,3358,108
5,0.0101819904521,3359,108
6,0.0101984459907,3360,108
7,0.010246321559,3361,108
8,0.0102769946679,3362,108
9,0.0102919572964,3363,108
10,0.0103353522718,3364,108
11,0.0103493193164,3365,108
12,0.0103897312656,3366,108
13,0.0104154320434,3367,108
14,0.0104401437566,3368,108
15,0.0104638691992,3369,108
16,0.0104753626511,3370,108
17,0.0104976147413,3371,108
18,0.0105188898742,3372,108
19,0.0105291632935,3373,108
20,0.0105489818379,3374,108
21,0.0105769047514,3375,108
22,0.0105943270028,3376,108
23,0.0106107993051,3377,108
24,0.0106263309717,3378,108
25,0.0106409303844,3379,108
26,0.0106546068564,3380,108
27,0.0106673678383,3381,108
28,0.0106734074652,3382,108
29,0.0106848115101,3383,108
30,0.010695326142,3384,108
31,0.0107049578801,3385,108
32,0.0107137206942,3386,108
33,0.0107216229662,3387,108
34,0.0107252560556,3388,108
35,0.0107318935916,3389,108
36,0.0107402997091,3390,108
37,0.0107448892668,3391,108
38,0.0107486825436,3392,108
39,0.0107516944408,3393,108
40,0.0107529107481,3394,108
41,0.0107554243878,3395,108
42,0.0107561731711,3396,108
43,0.0107562756166,3397,108
44,0.0107559449971,3398,108
45,0.0107549121603,3399,108
46,0.0107520865276,3400,108
47,0.010750811547,3401,108
48,0.010749373585,3402,108
49,0.0107441013679,3403,108
50,0.0107398107648,3404,108
51,0.01073492039,3405,108
52,0.0107294442132,3406,108
53,0.0107234045863,3407,108
54,0.0107168173417,3408,108
55,0.010709698312,3409,108
56,0.0107020689175,3410,108
57,0.0106939477846,3411,108
58,0.0106897074729,3412,108
59,0.0106808822602,3413,108
60,0.0106668164954,3414,108
61,0.0106569137424,3415,108
62,0.0106518128887,3416,108
63,0.0106413206086,3417,108
64,0.0106359347701,3418,108
65,0.0106248976663,3419,108
66,0.0106077110395,3420,108
67,0.0105958618224,3421,108
68,0.0105837229639,3422,108
69,0.0105713140219,3423,108
70,0.0105586536229,3424,108
71,0.0105522368103,3425,108
72,0.0105326622725,3426,108
73,0.010519368574,3427,108
74,0.0105059035122,3428,108
75,0.0104922894388,3429,108
76,0.0104785421863,3430,108
77,0.0104716233909,3431,108
78,0.0104577150196,3432,108
79,0.0104437228292,3433,108
80,0.0104296682402,3434,108
81,0.0104155689478,3435,108
82,0.0104014463723,3436,108
83,0.0103873191401,3437,108
84,0.0103802578524,3438,108
85,0.0103591205552,3439,108
86,0.0103450901806,3440,108
87,0.0103381006047,3441,108
88,0.0103172603995,3442,108
89,0.0103103630245,3443,108
90,0.010289859958,3444,108
91,0.0102763669565,3445,108
92,0.0102696791291,3446,108
93,0.0102630360052,3447,108
94,0.0102433832362,3448,108
95,0.0102305365726,3449,108
96,0.0102179115638,3450,108
97,0.0102055277675,3451,108
98,0.0101934019476,3452,108
99,0.0101815490052,3453,108
100,0.0101757301018,3454,108
101,0.0101587306708,3455,108
102,0.0101477960125,3456,108
103,0.0101372012869,3457,108
104,0.0101269604638,3458,108
105,0.0101170865819,3459,108
106,0.0101075982675,3460,108
107,0.0101030021906,3461,108
108,0.0100941173732,3462,108
109,0.0100856507197,3463,108
110,0.0100776189938,3464,108
111,0.0100737717003,3465,108
112,0.0100664161146,3466,108
113,0.0100595299155,3467,108
114,0.0100531242788,3468,108
115,0.0100444434211,3469,108
116,0.0100392950699,3470,108
117,0.0100346691906,3471,108
118,0.0100325560197,3472,108
119,0.0100270370021,3473,108
120,0.010024051182,3474,108
121,0.0100227715448,3475,108
122,0.0100206425413,3476,108
123,0.0100190993398,3477,108
124,0.0100181493908,3478,108
125,0.0100178997964,3479,108
126,0.0100178578869,3480,108
127,0.0100189559162,3481,108
128,0.0100204721093,3482,108
129,0.0100226281211,3483,108
130,0.0100239478052,3484,108
131,0.0100288856775,3485,108
132,0.0100330021232,3486,108
133,0.0100377863273,3487,108
134,0.0100432476029,3488,108
135,0.0100462315604,3489,108
136,0.0100562116131,3490,108
137,0.010059883818,3491,108
138,0.0100677497685,3492,108
139,0.0100719453767,3493,108
140,0.0100855855271,3494,108
141,0.0100955627859,3495,108
142,0.0101062534377,3496,108
143,0.0101176602766,3497,108
144,0.0101236319169,3498,108
145,0.0101361153647,3499,108
146,0.0101493233815,3500,108
147,0.0101632559672,3501,108
148,0.0101779159158,3502,108
149,0.0101933041587,3503,108
150,0.0102094225585,3504,108
151,0.0102349696681,3505,108
152,0.0102438507602,3506,108
153,0.010262160562,3507,108
154,0.0102812023833,3508,108
155,0.010300972499,3509,108
156,0.0103111304343,3510,108
157,0.0103426994756,3511,108
158,0.0103646498173,3512,108
159,0.0103873256594,3513,108
160,0.0104107214138,3514,108
161,0.0104348352179,3515,108
162,0.0104596633464,3516,108
163,0.0104852030054,3517,108
164,0.0104982387275,3518,108
165,0.0105248382315,3519,108
166,0.0105521380901,3520,108
167,0.0105943903327,3521,108
168,0.0106088193133,3522,108
169,0.0106381885707,3523,108
170,0.0106682367623,3524,108
171,0.0106989573687,3525,108
172,0.0107145681977,3526,108
173,0.0107623850927,3527,108
174,0.0107950782403,3528,108
175,0.0108284149319,3529,108
176,0.0108623839915,3530,108
177,0.0108969798312,3531,108
178,0.0109321931377,3532,108
179,0.010950027965,3533,108
180,0.0110044311732,3534,108
181,0.0110228629783,3535,108
182,0.0110790235922,3536,108
183,0.0110980281606,3537,108
184,0.0111364591867,3538,108
185,0.0111754387617,3539,108
186,0.0112149594352,3540,108
187,0.0112550053746,3541,108
188,0.011295568198,3542,108
189,0.0113366311416,3543,108
190,0.0113781830296,3544,108
191,0.0113991387188,3545,108
192,0.0114414002746,3546,108
193,0.0115056438372,3547,108
194,0.0115272775292,3548,108
195,0.0115708643571,3549,108
196,0.0116370143369,3550,108
197,0.0116816069931,3551,108
198,0.0117040444165,3552,108
199,0.0117491930723,3553,108
200,0.0117946946993,3554,108
201,0.0118175717071,3555,108
202,0.0118866879493,3556,108
203,0.0119331488386,3557,108
204,0.0119798947126,3558,108
205,0.0120269116014,3559,108
206,0.0120741799474,3560,108
207,0.0121216848493,3561,108
208,0.012169405818,3562,108
209,0.0122173242271,3563,108
210,0.0122654251754,3564,108
211,0.0122895380482,3565,108
212,0.0123620983213,3566,108
213,0.0123863518238,3567,108
214,0.012410633266,3568,108
215,0.0124836284667,3569,108
216,0.0125323934481,3570,108
217,0.0125812189654,3571,108
218,0.0126056466252,3572,108
219,0.0126545233652,3573,108
220,0.0127278510481,3574,108
221,0.0127767147496,3575,108
222,0.0128011340275,3576,108
223,0.0128743061796,3577,108
224,0.0129229929298,3578,108
225,0.0129715800285,3579,108
226,0.0130200460553,3580,108
227,0.0130442287773,3581,108
228,0.0130924778059,3582,108
229,0.0131405564025,3583,108
230,0.013188444078,3584,108
231,0.0132361184806,3585,108
232,0.0132835609838,3586,108
233,0.0133071886376,3587,108
234,0.0133776674047,3588,108
235,0.0134242903441,3589,108
236,0.0134474849328,3590,108
237,0.0135165741667,3591,108
238,0.013562195003,3592,108
239,0.0136074414477,3593,108
240,0.0136522920802,3594,108
241,0.0136967273429,3595,108
242,0.0137407276779,3596,108
243,0.0137625578791,3597,108
244,0.0138058690354,3598,108
245,0.0138273434713,3599,108
246,0.0138910170645,3600,108
247,0.0139328157529,3601,108
248,0.013974070549,3602,108
249,0.0139944888651,3603,108
250,0.0140548776835,3604,108
251,0.0140943890437,3605,108
252,0.0141332847998,3606,108
253,0.0141715416685,3607,108
254,0.0142091447487,3608,108
255,0.0142276957631,3609,108
256,0.0142823159695,3610,108
257,0.0143178487197,3611,108
258,0.0143353464082,3612,108
259,0.0143526587635,3613,108
260,0.0144034754485,3614,108
261,0.0144200343639,3615,108
262,0.0144685404375,3616,108
263,0.0144998831674,3617,108
264,0.0145152499899,3618,108
265,0.0145601127297,3619,108
266,0.014588967897,3620,108
267,0.0146169653162,3621,108
268,0.0146440900862,3622,108
269,0.0146703273058,3623,108
270,0.0146831097081,3624,108
271,0.0147200925276,3625,108
272,0.0147435907274,3626,108
273,0.0147549891844,3627,108
274,0.0147661520168,3628,108
275,0.0147877633572,3629,108
276,0.0148183722049,3630,108
277,0.0148375583813,3631,108
278,0.0148557564244,3632,108
279,0.0148644810542,3633,108
280,0.0148811759427,3634,108
281,0.0149043174461,3635,108
282,0.0149115184322,3636,108
283,0.0149315735325,3637,108
284,0.0149436406791,3638,108
285,0.0149492807686,3639,108
286,0.0149646168575,3640,108
287,0.0149691980332,3641,108
288,0.0149813387543,3642,108
289,0.0149848479778,3643,108
290,0.014991058968,3644,108
291,0.0149961877614,3645,108
292,0.0150002278388,3646,108
293,0.0150031754747,3647,108
294,0.0150050297379,3648,108
295,0.0150055447593,3649,108
296,0.0150054395199,3650,108
297,0.0150039931759,3651,108
298,0.0150014413521,3652,108
299,0.014997785911,3653,108
300,0.0149930240586,3654,108
301,0.0149871576577,3655,108
302,0.0149801867083,3656,108
303,0.0149721102789,3657,108
304,0.014967658557,3658,108
305,0.0149579290301,3659,108
306,0.0149470996112,3660,108
307,0.0149351740256,3661,108
308,0.0149221532047,3662,108
309,0.0149152353406,3663,108
310,0.0149005819112,3664,108
311,0.0148848444223,3665,108
312,0.0148592162877,3666,108
313,0.014850136824,3667,108
314,0.0148213040084,3668,108
315,0.0148007562384,3669,108
316,0.0147791570053,3670,108
317,0.0147565137595,3671,108
318,0.0147328358144,3672,108
319,0.0147206112742,3673,108
320,0.0146953947842,3674,108
321,0.0146824046969,3675,108
322,0.0146419284865,3676,108
323,0.0146279390901,3677,108
324,0.0145844854414,3678,108
325,0.0145543003455,3679,108
326,0.0145231513306,3680,108
327,0.0145072201267,3681,108
328,0.0144746499136,3682,108
329,0.0144240548834,3683,108
330,0.0143891805783,3684,108
331,0.0143534084782,3685,108
332,0.0143351890147,3686,108
333,0.0142980925739,3687,108
334,0.0142601327971,3688,108
335,0.0142213255167,3689,108
336,0.0141816837713,3690,108
337,0.0141412233934,3691,108
338,0.0141206905246,3692,108
339,0.0140579110011,3693,108
340,0.0140150915831,3694,108
341,0.0139715205878,3695,108
342,0.0139494584873,3696,108
343,0.0138821899891,3697,108
344,0.0138594154269,3698,108
345,0.0137900626287,3699,108
346,0.0137429954484,3700,108
347,0.0136952828616,3701,108
348,0.01364694722,3702,108
349,0.0136225521564,3703,108
350,0.01359800715,3704,108
351,0.0135235050693,3705,108
352,0.0134731382132,3706,108
353,0.0134222367778,3707,108
354,0.0133708221838,3708,108
355,0.0133189139888,3709,108
356,0.0132927820086,3710,108
357,0.0132137062028,3711,108
358,0.0131871281192,3712,108
359,0.0131336618215,3713,108
360,0.013079800643,3714,108
361,0.012998313643,3715,108
362,0.0129435583949,3716,108
363,0.0128884846345,3717,108
364,0.0128608355299,3718,108
365,0.0128331175074,3719,108
366,0.0127774775028,3720,108
367,0.0127215879038,3721,108
368,0.0126373386011,3722,108
369,0.012580929324,3723,108
370,0.0125243524089,3724,108
371,0.0124676311389,3725,108
372,0.0124107887968,3726,108
373,0.0123823303729,3727,108
374,0.0122968405485,3728,108
375,0.012239780277,3729,108
376,0.012211240828,3730,108
377,0.0121541526169,3731,108
378,0.0120970774442,3732,108
379,0.0120400367305,3733,108
380,0.0119830556214,3734,108
381,0.0119545953348,3735,108
382,0.0118693672121,3736,108
383,0.0118127074093,3737,108
384,0.0117562059313,3738,108
385,0.011699882336,3739,108
386,0.0116437645629,3740,108
387,0.0116157885641,3741,108
388,0.011532234028,3742,108
389,0.0115045169368,3743,108
390,0.0114492997527,3744,108
391,0.0113670639694,3745,108
392,0.0113126700744,3746,108
393,0.0112586459145,3747,108
394,0.0112050147727,3748,108
395,0.0111783538014,3749,108
396,0.0111253559589,3750,108
397,0.0110728107393,3751,108
398,0.0110207404941,3752,108
399,0.0109948897734,3753,108
400,0.0109181115404,3754,108
401,0.0108675993979,3755,108
402,0.0108176516369,3756,108
403,0.0107682887465,3757,108
404,0.0107195340097,3758,108
405,0.010671408847,3759,108
406,0.0106239337474,3760,108
407,0.0105771310627,3761,108
408,0.0105310212821,3762,108
409,0.0104856239632,3763,108
410,0.0104631995782,3764,108
411,0.0104189114645,3765,108
412,0.010375386104,3766,108
413,0.0103326421231,3767,108
414,0.0103115709499,3768,108
415,0.0102495830506,3769,108
416,0.0102293370292,3770,108
417,0.0101698823273,3771,108
418,0.0101313376799,3772,108
419,0.0101123992354,3773,108
420,0.010056947358,3774,108
421,0.0100389234722,3775,108
422,0.0100035835057,3776,108
423,0.0100271413103,3840,108
424,0.0100453235209,3841,108
425,0.0100824190304,3842,108
426,0.0101204840466,3843,108
427,0.0101594971493,3844,108
428,0.0102197593078,3845,108
429,0.0102610671893,3846,108
430,0.0102820536122,3847,108
431,0.0103463195264,3848,108
432,0.010368168354,3849,108
433,0.0104349572212,3850,108
434,0.0104804942384,3851,108
435,0.0105268135667,3852,108
436,0.0105738956481,3853,108
437,0.0105977151543,3854,108
438,0.0106217171997,3855,108
439,0.0106947897002,3856,108
440,0.0107443630695,3857,108
441,0.0107945976779,3858,108
442,0.0108454683796,3859,108
443,0.0108969509602,3860,108
444,0.0109229143709,3861,108
445,0.011001653038,3862,108
446,0.0110548222438,3863,108
447,0.011108503677,3864,108
448,0.0111626703292,3865,108
449,0.0112172970548,3866,108
450,0.0112447747961,3867,108
451,0.0113278226927,3868,108
452,0.0113836675882,3869,108
453,0.0114117236808,3870,108
454,0.0114398645237,3871,108
455,0.0114963846281,3872,108
456,0.0115817105398,3873,108
457,0.0116389188915,3874,108
458,0.0116676082835,3875,108
459,0.011753979139,3876,108
460,0.011811774224,3877,108
461,0.0118407253176,3878,108
462,0.011927748099,3879,108
463,0.0119858700782,3880,108
464,0.0120440404862,3881,108
465,0.0120731350034,3882,108
466,0.0121604083106,3883,108
467,0.0122185461223,3884,108
468,0.0122475912794,3885,108
469,0.0123056098819,3886,108
470,0.0123345786706,3887,108
471,0.0124212689698,3888,108
472,0.0124500812963,3889,108
473,0.0125075569376,3890,108
474,0.0125933391973,3891,108
475,0.0126218022779,3892,108
476,0.0127067454159,3893,108
477,0.0127629647031,3894,108
478,0.0127909388393,3895,108
479,0.0128742754459,3896,108
480,0.0129293045029,3897,108
481,0.0129566481337,3898,108
482,0.0130379544571,3899,108
483,0.0130648007616,3900,108
484,0.0131180882454,3901,108
485,0.0131708076224,3902,108
486,0.0132229281589,3903,108
487,0.0132744163275,3904,108
488,0.0133252441883,3905,108
489,0.0133753791451,3906,108
490,0.013424789533,3907,108
491,0.0134492143989,3908,108
492,0.0135213173926,3909,108
493,0.0135449478403,3910,108
494,0.0135915828869,3911,108
495,0.0136599102989,3912,108
496,0.013682236895,3913,108
497,0.013747818768,3914,108
498,0.0137692000717,3915,108
499,0.0138112222776,3916,108
500,0.0138522321358,3917,108
501,0.0138921989128,3918,108
502,0.0139310928062,3919,108
503,0.0139688868076,3920,108
504,0.0140055501834,3921,108
505,0.0140410531312,3922,108
506,0.0140753686428,3923,108
507,0.0141084669158,3924,108
508,0.0141403209418,3925,108
509,0.0141709018499,3926,108
510,0.0142001844943,3927,108
511,0.0142281362787,3928,108
512,0.0142547348514,3929,108
513,0.0142675181851,3930,108
514,0.0142920343205,3931,108
515,0.0143037615344,3932,108
516,0.014336777851,3933,108
517,0.0143569530919,3934,108
518,0.0143756307662,3935,108
519,0.0143927838653,3936,108
520,0.014408390969,3937,108
521,0.014415605925,3938,108
522,0.0144348628819,3939,108
523,0.0144456801936,3940,108
524,0.0144548565149,3941,108
525,0.0144623667002,3942,108
526,0.0144654912874,3943,108
527,0.0144723048434,3944,108
528,0.0144737148657,3945,108
529,0.0144752264023,3946,108
530,0.0144749758765,3947,108
531,0.0144729455933,3948,108
532,0.0144712561741,3949,108
533,0.0144665166736,3950,108
534,0.0144559731707,3951,108
535,0.0144466292113,3952,108
536,0.0144412554801,3953,108
537,0.014422301203,3954,108
538,0.0144150331616,3955,108
539,0.0143990591168,3956,108
540,0.0143714742735,3957,108
541,0.0143613060936,3958,108
542,0.0143278539181,3959,108
543,0.0143157169223,3960,108
544,0.0142899518833,3961,108
545,0.0142621900886,3962,108
546,0.0142475571483,3963,108
547,0.0142006315291,3964,108
548,0.0141668114811,3965,108
549,0.0141491368413,3966,108
550,0.0140930470079,3967,108
551,0.0140530839562,3968,108
552,0.0140323285013,3969,108
553,0.0139892697334,3970,108
554,0.0139207895845,3971,108
555,0.0138725368306,3972,108
556,0.0138476286083,3973,108
557,0.0137962475419,3974,108
558,0.0137427765876,3975,108
559,0.0137152569368,3976,108
560,0.0136295557022,3977,108
561,0.0135698048398,3978,108
562,0.0135079594329,3979,108
563,0.0134762516245,3980,108
564,0.0133779905736,3981,108
565,0.0133441928774,3982,108
566,0.0132396677509,3983,108
567,0.0131673822179,3984,108
568,0.013093020767,3985,108
569,0.0130165899172,3986,108
570,0.0129380943254,3987,108
571,0.0128575451672,3988,108
572,0.012774948962,3989,108
573,0.0127328876406,3990,108
574,0.0126472404227,3991,108
575,0.0125595731661,3992,108
576,0.0124698970467,3993,108
577,0.012424309738,3994,108
578,0.0122845675796,3995,108
579,0.012188943103,3996,108
580,0.0121403969824,3997,108
581,0.0120418481529,3998,108
582,0.0119413686916,3999,108
583,0.0118389790878,4000,108
584,0.0116818509996,4001,108
585,0.011574764736,4002,108
586,0.0115205291659,4003,108
587,0.0113550834358,4004,108
588,0.0112990317866,4005,108
589,0.0111855892465,4006,108
590,0.0110703799874,4007,108
591,0.0109534300864,4008,108
592,0.0108943097293,4009,108
593,0.0107747940347,4010,108
594,0.0105923833326,4011,108
595,0.0105307586491,4012,108
596,0.0103434603661,4013,108
597,0.0102802338079,4014,108
598,0.01008822117,4015,108
599,0.0100234523416,4016,108
600,-0.0100225834176,4202,108
601,-0.0100750718266,4203,108
602,-0.0101276012138,4204,108
603,-0.0101538877934,4205,108
604,-0.0102065131068,4206,108
605,-0.0102856168523,4207,108
606,-0.0103384898975,4208,108
607,-0.0103914905339,4209,108
608,-0.0104446383193,4210,108
609,-0.010471271351,4211,108
610,-0.0105514405295,4212,108
611,-0.010605128482,4213,108
612,-0.0106590325013,4214,108
613,-0.0107131665573,4215,108
614,-0.0107675492764,4216,108
615,-0.0107948388904,4217,108
616,-0.0108496248722,4218,108
617,-0.0108771258965,4219,108
618,-0.0109600834548,4220,108
619,-0.0110157867894,4221,108
620,-0.0110718300566,4222,108
621,-0.0111282290891,4223,108
622,-0.0111849997193,4224,108
623,-0.011213529855,4225,108
624,-0.0112708872184,4226,108
625,-0.0113576976582,4227,108
626,-0.0114161111414,4228,108
627,-0.0114454850554,4229,108
628,-0.0115343034267,4230,108
629,-0.0115941129625,4231,108
630,-0.0116544188932,4232,108
631,-0.0116847613826,4233,108
632,-0.0117458375171,4234,108
633,-0.011807446368,4235,108
634,-0.0118384547532,4236,108
635,-0.0119008887559,4237,108
636,-0.0119638899341,4238,108
637,-0.0120594864711,4239,108
638,-0.0120916506276,4240,108
639,-0.0121890632436,4241,108
640,-0.0122547894716,4242,108
641,-0.0123211573809,4243,108
642,-0.0123881781474,4244,108
643,-0.0124558657408,4245,108
644,-0.0125242331997,4246,108
645,-0.0125932907686,4247,108
646,-0.012628082186,4248,108
647,-0.0126981986687,4249,108
648,-0.0127335246652,4250,108
649,-0.0128047233447,4251,108
650,-0.0129129048437,4252,108
651,-0.0129859615117,4253,108
652,-0.013059780933,4254,108
653,-0.0130969788879,4255,108
654,-0.0132097397,4256,108
655,-0.0132858976722,4257,108
656,-0.0133242746815,4258,108
657,-0.0134406145662,4259,108
658,-0.0135191874579,4260,108
659,-0.0135587835684,4261,108
660,-0.0136788086966,4262,108
661,-0.0137192327529,4263,108
662,-0.013800711371,4264,108
663,-0.0138830337673,4265,108
664,-0.0139662055299,4266,108
665,-0.0140502322465,4267,108
666,-0.0141351204365,4268,108
667,-0.0142208710313,4269,108
668,-0.0142640722916,4270,108
669,-0.0143949827179,4271,108
670,-0.0144390556961,4272,108
671,-0.0145725933835,4273,108
672,-0.0146175445989,4274,108
673,-0.0147081101313,4275,108
674,-0.0148456133902,4276,108
675,-0.0149383889511,4277,108
676,-0.0149851078168,4278,108
677,-0.015079209581,4279,108
678,-0.0151741951704,4280,108
679,-0.0152700645849,4281,108
680,-0.0153668168932,4282,108
681,-0.0154644493014,4283,108
682,-0.0155135961249,4284,108
683,-0.0156623516232,4285,108
684,-0.0157123729587,4286,108
685,-0.015863744542,4287,108
686,-0.0159657429904,4288,108
687,-0.0160686038435,4289,108
688,-0.0161203555763,4290,108
689,-0.0162244997919,4291,108
690,-0.0163823068142,4292,108
691,-0.0164353270084,4293,108
