,amplitude,tstep,vfp
0,0.0100949062034,3359,115
1,0.0102005759254,3360,115
2,0.0102534145117,3361,115
3,0.0104119228199,3362,115
4,0.0105175627396,3363,115
5,0.0106231570244,3364,115
6,0.0106759294868,3365,115
7,0.0108341258019,3366,115
8,0.0108868088573,3367,115
9,0.0110446782783,3368,115
10,0.0110972337425,3369,115
11,0.0112022282556,3370,115
12,0.0113070514053,3371,115
13,0.0114116836339,3372,115
14,0.0115161072463,3373,115
15,0.0115682343021,3374,115
16,0.0117242475972,3375,115
17,0.0117761222646,3376,115
18,0.0119313206524,3377,115
19,0.0120344078168,3378,115
20,0.012137170881,3379,115
21,0.0122395893559,3380,115
22,0.0123416455463,3381,115
23,0.0124433208257,3382,115
24,0.0125445928425,3383,115
25,0.0126454457641,3384,115
26,0.0126957092434,3385,115
27,0.0127458609641,3386,115
28,0.0128458179533,3387,115
29,0.0129948556423,3388,115
30,0.0130935879424,3389,115
31,0.0131427599117,3390,115
32,0.0132894674316,3391,115
33,0.0133865792304,3392,115
34,0.0134831126779,3393,115
35,0.0135790519416,3394,115
36,0.0136743783951,3395,115
37,0.0137218059972,3396,115
38,0.0138631202281,3397,115
39,0.01395650208,3398,115
40,0.0140492012724,3399,115
41,0.0140952896327,3400,115
42,0.0141869327053,3401,115
43,0.0142778502777,3402,115
44,0.014368025586,3403,115
45,0.014457443729,3404,115
46,0.0145460860804,3405,115
47,0.0146339377388,3406,115
48,0.0147209828719,3407,115
49,0.0148072056472,3408,115
50,0.0148925911635,3409,115
51,0.0149771217257,3410,115
52,0.0150607833639,3411,115
53,0.0151435630396,3412,115
54,0.0152254449204,3413,115
55,0.0152660440654,3414,115
56,0.0153864556924,3415,115
57,0.0154261244461,3416,115
58,0.0155047504231,3417,115
59,0.0155824162066,3418,115
60,0.0156591068953,3419,115
61,0.0157348103821,3420,115
62,0.0158095136285,3421,115
63,0.0158832035959,3422,115
64,0.0159558691084,3423,115
65,0.016027495265,3424,115
66,0.0160629171878,3425,115
67,0.0161675922573,3426,115
68,0.016201948747,3427,115
69,0.0163034014404,3428,115
70,0.0163696724921,3429,115
71,0.0164023935795,3430,115
72,0.0164670012891,3431,115
73,0.0164988879114,3432,115
74,0.0165928564966,3433,115
75,0.01665407978,3434,115
76,0.016684262082,3435,115
77,0.016773076728,3436,115
78,0.0168308336288,3437,115
79,0.0168874189258,3438,115
80,0.0169428233057,3439,115
81,0.0169970374554,3440,115
82,0.0170500576496,3441,115
83,0.0171018764377,3442,115
84,0.0171524845064,3443,115
85,0.0172018781304,3444,115
86,0.0172500498593,3445,115
87,0.017273677513,3446,115
88,0.0173200070858,3447,115
89,0.0173651017249,3448,115
90,0.0173871833831,3449,115
91,0.0174515657127,3450,115
92,0.0174724012613,3451,115
93,0.0175330303609,3452,115
94,0.0175526123494,3453,115
95,0.0176094714552,3454,115
96,0.0176277924329,3455,115
97,0.0176808591932,3456,115
98,0.0176979135722,3457,115
99,0.0177471749485,3458,115
100,0.0177629590034,3459,115
101,0.0178084019572,3460,115
102,0.0178229138255,3461,115
103,0.0178371053189,3462,115
104,0.017864536494,3463,115
105,0.0179032851011,3464,115
106,0.0179155636579,3465,115
107,0.0179391652346,3466,115
108,0.0179721731693,3467,115
109,0.0179825387895,3468,115
110,0.018011726439,3469,115
111,0.0180295966566,3470,115
112,0.0180380549282,3471,115
113,0.018061529845,3472,115
114,0.0180756002665,3473,115
115,0.0180884096771,3474,115
116,0.0180943422019,3475,115
117,0.0181052647531,3476,115
118,0.0181149337441,3477,115
119,0.0181233529001,3478,115
120,0.0181305259466,3479,115
121,0.0181336477399,3480,115
122,0.0181411597878,3481,115
123,0.0181446261704,3482,115
124,0.0181468687952,3483,115
125,0.0181478913873,3484,115
126,0.0181477013975,3485,115
127,0.018146302551,3486,115
128,0.018143704161,3487,115
129,0.0181419588625,3488,115
130,0.0181349366903,3489,115
131,0.0181320048869,3490,115
132,0.0181252602488,3491,115
133,0.0181173514575,3492,115
134,0.0181082822382,3493,115
135,0.0180980600417,3494,115
136,0.0180925223976,3495,115
137,0.0180742032826,3496,115
138,0.0180605836213,3497,115
139,0.0180533546954,3498,115
140,0.0180380661041,3499,115
141,0.0180130731314,3500,115
142,0.01800419949,3501,115
143,0.0179759655148,3502,115
144,0.0179558116943,3503,115
145,0.0179453380406,3504,115
146,0.0179236084223,3505,115
147,0.0179008431733,3506,115
148,0.0178770534694,3507,115
149,0.0178647805005,3508,115
150,0.0178264565766,3509,115
151,0.0177996717393,3510,115
152,0.0177719090134,3511,115
153,0.0177431851625,3512,115
154,0.0177284665406,3513,115
155,0.0176983233541,3514,115
156,0.0176672507077,3515,115
157,0.0176189281046,3516,115
158,0.0176023710519,3517,115
159,0.0175513718277,3518,115
160,0.017516285181,3519,115
161,0.0174984205514,3520,115
162,0.0174435656518,3521,115
163,0.0174248665571,3522,115
164,0.0174059625715,3523,115
165,0.0173480473459,3524,115
166,0.0173283461481,3525,115
167,0.0172680802643,3526,115
168,0.0172476116568,3527,115
169,0.017185093835,3528,115
170,0.0171425044537,3529,115
171,0.0170992091298,3530,115
172,0.017055220902,3531,115
173,0.0170105565339,3532,115
174,0.0169652327895,3533,115
175,0.0169423278421,3534,115
176,0.0168960448354,3535,115
177,0.0168254617602,3536,115
178,0.0168016348034,3537,115
179,0.016753545031,3538,115
180,0.0167048852891,3539,115
181,0.0166556742042,3540,115
182,0.0166059285402,3541,115
183,0.0165808591992,3542,115
184,0.01650490053,3543,115
185,0.016453653574,3544,115
186,0.0164019409567,3545,115
187,0.016349779442,3546,115
188,0.0162971876562,3547,115
189,0.0162441842258,3548,115
190,0.016190784052,3549,115
191,0.0161370057613,3550,115
192,0.01608286798,3551,115
193,0.0160556696355,3552,115
194,0.0160283856094,3553,115
195,0.0159735791385,3554,115
196,0.0158907976002,3555,115
197,0.0158352553844,3556,115
198,0.0157794523984,3557,115
199,0.0157234016806,3558,115
200,0.01569529064,3559,115
201,0.0156106399372,3560,115
202,0.015582322143,3561,115
203,0.0155255515128,3562,115
204,0.0154400905594,3563,115
205,0.0154115306213,3564,115
206,0.01532566268,3565,115
207,0.0152969844639,3566,115
208,0.015239559114,3567,115
209,0.015210814774,3568,115
210,0.0151532758027,3569,115
211,0.0150668714195,3570,115
212,0.0150092309341,3571,115
213,0.0149804055691,3572,115
214,0.0149227548391,3573,115
215,0.0148363113403,3574,115
216,0.0147787276655,3575,115
217,0.0147212008014,3576,115
218,0.0146637456492,3577,115
219,0.0146063780412,3578,115
220,0.0145491147414,3579,115
221,0.0144919725135,3580,115
222,0.0144349653274,3581,115
223,0.0144065180793,3582,115
224,0.0143497446552,3583,115
225,0.0142931453884,3584,115
226,0.0142367361113,3585,115
227,0.0142086073756,3586,115
228,0.0141245471314,3587,115
229,0.0140687972307,3588,115
230,0.0140132969245,3589,115
231,0.0139580592513,3590,115
232,0.0139031000435,3591,115
233,0.0138484314084,3592,115
234,0.0138212097809,3593,115
235,0.0137400189415,3594,115
236,0.0136863030493,3595,115
237,0.0136595731601,3596,115
238,0.0136063778773,3597,115
239,0.0135799152777,3598,115
240,0.0135010872036,3599,115
241,0.013475002721,3600,115
242,0.0134231289849,3601,115
243,0.0133716585115,3602,115
244,0.0133206043392,3603,115
245,0.0132448263466,3604,115
246,0.0131948590279,3605,115
247,0.0131453434005,3606,115
248,0.0130962925032,3607,115
249,0.0130719430745,3608,115
250,0.012999615632,3609,115
251,0.012975750491,3610,115
252,0.0129049019888,3611,115
253,0.0128815388307,3612,115
254,0.0128351971507,3613,115
255,0.01278937608,3614,115
256,0.0127440821379,3615,115
257,0.0127216354012,3616,115
258,0.0126551091671,3617,115
259,0.0126332063228,3618,115
260,0.0125683303922,3619,115
261,0.0125257801265,3620,115
262,0.0124837970361,3621,115
263,0.0124423848465,3622,115
264,0.0124218948185,3623,115
265,0.0123612945899,3624,115
266,0.0123216267675,3625,115
267,0.0123020140454,3626,115
268,0.0122632319108,3627,115
269,0.0122250439599,3628,115
270,0.0122061735019,3629,115
271,0.0121688842773,3630,115
272,0.0121321938932,3631,115
273,0.0120782917365,3632,115
274,0.0120606264099,3633,115
275,0.0120257511735,3634,115
276,0.0119745759293,3635,115
277,0.0119578214362,3636,115
278,0.011908467859,3637,115
279,0.0118923205882,3638,115
280,0.011844788678,3639,115
281,0.0118292467669,3640,115
282,0.011783529073,3641,115
283,0.0117538031191,3642,115
284,0.0117391645908,3643,115
285,0.0117246760055,3644,115
286,0.0116821043193,3645,115
287,0.011654464528,3646,115
288,0.0116274133325,3647,115
289,0.0116009470075,3648,115
290,0.0115750608966,3649,115
291,0.0115623343736,3650,115
292,0.0115373106673,3651,115
293,0.0115008372813,3652,115
294,0.0114772226661,3653,115
295,0.0114541621879,3654,115
296,0.0114316493273,3655,115
297,0.0114096766338,3656,115
298,0.0113882375881,3657,115
299,0.0113777155057,3658,115
300,0.0113570634276,3659,115
301,0.0113369254395,3660,115
302,0.0113172931597,3661,115
303,0.011298158206,3662,115
304,0.0112795121968,3663,115
305,0.0112703694031,3664,115
306,0.0112436488271,3665,115
307,0.0112264109775,3666,115
308,0.0112096238881,3667,115
309,0.0112013956532,3668,115
310,0.0111773582175,3669,115
311,0.011169555597,3670,115
312,0.0111467633396,3671,115
313,0.0111393658444,3672,115
314,0.011124859564,3673,115
315,0.0111107304692,3674,115
316,0.0110969673842,3675,115
317,0.0110835572705,3676,115
318,0.0110769802704,3677,115
319,0.0110640749335,3678,115
320,0.0110453134403,3679,115
321,0.0110331838951,3680,115
322,0.0110213411972,3681,115
323,0.0110097732395,3682,115
324,0.0110040865839,3683,115
325,0.0109929004684,3684,115
326,0.0109819537029,3685,115
327,0.0109712304547,3686,115
328,0.0109607158229,3687,115
329,0.0109503949061,3688,115
330,0.0109402537346,3689,115
331,0.0109352450818,3690,115
332,0.0109253441915,3691,115
333,0.0109107531607,3692,115
334,0.0109011763707,3693,115
335,0.0108964266255,3694,115
336,0.0108823133633,3695,115
337,0.0108729964122,3696,115
338,0.0108637344092,3697,115
339,0.0108545115218,3698,115
340,0.0108453128487,3699,115
341,0.0108361206949,3700,115
342,0.0108269192278,3701,115
343,0.0108176926151,3702,115
344,0.0108130648732,3703,115
345,0.0108037702739,3704,115
346,0.0107944095507,3705,115
347,0.0107849668711,3706,115
348,0.0107754264027,3707,115
349,0.0107657713816,3708,115
350,0.0107559850439,3709,115
351,0.0107510378584,3710,115
352,0.0107410252094,3711,115
353,0.0107256798074,3712,115
354,0.0107152080163,3713,115
355,0.0107045257464,3714,115
356,0.0106990998611,3715,115
357,0.0106880702078,3716,115
358,0.0106710502878,3717,115
359,0.0106652425602,3718,115
360,0.0106534129009,3719,115
361,0.0106473863125,3720,115
362,0.0106288418174,3721,115
363,0.0106224985793,3722,115
364,0.0106095587835,3723,115
365,0.0105962669477,3724,115
366,0.0105756381527,3725,115
367,0.0105614019558,3726,115
368,0.0105467634276,3727,115
369,0.0105317085981,3728,115
370,0.0105162225664,3729,115
371,0.0105083128437,3730,115
372,0.0104921525344,3731,115
373,0.0104670347646,3732,115
374,0.0104584209621,3733,115
375,0.010440823622,3734,115
376,0.0104227205738,3735,115
377,0.010404098779,3736,115
378,0.0103945899755,3737,115
379,0.0103652514517,3738,115
380,0.0103551968932,3739,115
381,0.0103241866454,3740,115
382,0.0103027923033,3741,115
383,0.0102808075026,3742,115
384,0.0102582238615,3743,115
385,0.0102350283414,3744,115
386,0.0102112125605,3745,115
387,0.0101867644116,3746,115
388,0.0101616755128,3747,115
389,0.0101359356195,3748,115
390,0.010122817941,3749,115
391,0.0100960852578,3750,115
392,0.0100686792284,3751,115
393,0.0100405924022,3752,115
394,0.0100262910128,3753,115
395,-0.0100481500849,4061,115
396,-0.0101396963,4062,115
397,-0.0102320462465,4063,115
398,-0.0103252036497,4064,115
399,-0.0103720864281,4065,115
400,-0.0104664620012,4066,115
401,-0.0105139557272,4067,115
402,-0.0106576634571,4068,115
403,-0.0107544939965,4069,115
404,-0.0108032179996,4070,115
405,-0.0109506258741,4071,115
406,-0.0110499290749,4072,115
407,-0.0111500592902,4073,115
408,-0.0112510155886,4074,115
409,-0.0113527998328,4075,115
410,-0.0114040020853,4076,115
411,-0.0115588475019,4077,115
412,-0.0116631109267,4078,115
413,-0.0117155518383,4079,115
414,-0.0118210492656,4080,115
415,-0.0119273690507,4081,115
416,-0.012034506537,4082,115
417,-0.0121424598619,4083,115
418,-0.0122512271628,4084,115
419,-0.0123059144244,4085,115
420,-0.0124711841345,4086,115
421,-0.0125266751274,4087,115
422,-0.0126943448558,4088,115
423,-0.0128071149811,4089,115
424,-0.0129206711426,4090,115
425,-0.0130350068212,4091,115
426,-0.0130924656987,4092,115
427,-0.0132659925148,4093,115
428,-0.0133826285601,4094,115
429,-0.0135000161827,4095,115
430,-0.0135589893907,4096,115
431,-0.0136181470007,4097,115
432,-0.0137967197224,4098,115
433,-0.0139166740701,4099,115
434,-0.0139769194648,4100,115
435,-0.0140979383141,4101,115
436,-0.0142196565866,4102,115
437,-0.0144035210833,4103,115
438,-0.0145269390196,4104,115
439,-0.0145888961852,4105,115
440,-0.014713300392,4106,115
441,-0.0149011090398,4107,115
442,-0.0150270983577,4108,115
443,-0.0150903230533,4109,115
444,-0.0152808977291,4110,115
445,-0.0154086826369,4111,115
446,-0.0154727902263,4112,115
447,-0.015601426363,4113,115
448,-0.0156659521163,4114,115
449,-0.0158603359014,4115,115
450,-0.0159905795008,4116,115
451,-0.0160558912903,4117,115
452,-0.0161868873984,4118,115
453,-0.0163842793554,4119,115
454,-0.0165164470673,4120,115
455,-0.016649056226,4121,115
456,-0.0167820900679,4122,115
457,-0.016915531829,4123,115
458,-0.0169824007899,4124,115
459,-0.0171835683286,4125,115
460,-0.0173181258142,4126,115
461,-0.0173855330795,4127,115
462,-0.0175205916166,4128,115
463,-0.0176559574902,4129,115
464,-0.0177916139364,4130,115
465,-0.0179275423288,4131,115
466,-0.018063724041,4132,115
467,-0.0182001367211,4133,115
468,-0.0183367673308,4134,115
469,-0.0184735916555,4135,115
470,-0.0186105892062,4136,115
471,-0.0187477432191,4137,115
472,-0.0188850313425,4138,115
473,-0.0189537201077,4139,115
474,-0.0190911721438,4140,115
475,-0.0192975047976,4141,115
476,-0.0193663146347,4142,115
477,-0.0195039622486,4143,115
478,-0.0196416322142,4144,115
479,-0.0197104681283,4145,115
480,-0.0199169609696,4146,115
481,-0.0200545769185,4147,115
482,-0.0201921332628,4148,115
483,-0.0203296113759,4149,115
484,-0.0204669870436,4150,115
485,-0.020604243502,4151,115
486,-0.0207413565367,4152,115
487,-0.0208783075213,4153,115
488,-0.0209467150271,4154,115
489,-0.0211516376585,4155,115
490,-0.021219836548,4156,115
491,-0.0213560573757,4157,115
492,-0.0214920211583,4158,115
493,-0.0216277111322,4159,115
494,-0.0217631049454,4160,115
495,-0.021898182109,4161,115
496,-0.0220329239964,4162,115
497,-0.0221673101187,4163,115
498,-0.0223013199866,4164,115
499,-0.0224349368364,4165,115
500,-0.0225681364536,4166,115
501,-0.0227009039372,4167,115
502,-0.022833218798,4168,115
503,-0.0229650624096,4169,115
504,-0.0230308007449,4170,115
505,-0.0232272576541,4171,115
506,-0.0232924837619,4172,115
507,-0.0233575738966,4173,115
508,-0.0235520172864,4174,115
509,-0.0236809365451,4175,115
510,-0.0238092653453,4176,115
511,-0.0238732043654,4177,115
512,-0.0240640863776,4178,115
513,-0.0241273976862,4179,115
514,-0.0243163462728,4180,115
515,-0.0244414750487,4181,115
516,-0.0245659146458,4182,115
517,-0.0246278718114,4183,115
518,-0.0248126666993,4184,115
519,-0.0248738992959,4185,115
520,-0.0250564794987,4186,115
521,-0.0251169595867,4187,115
522,-0.0252373404801,4188,115
523,-0.0253569371998,4189,115
524,-0.0254757367074,4190,115
525,-0.0255937241018,4191,115
526,-0.0257108900696,4192,115
527,-0.0258272178471,4193,115
528,-0.0258850641549,4194,115
529,-0.0260573159903,4195,115
530,-0.0261710621417,4196,115
531,-0.0262839272618,4197,115
532,-0.0263958983123,4198,115
533,-0.0264515448362,4199,115
534,-0.0266171135008,4200,115
535,-0.0267263390124,4201,115
536,-0.0267806015909,4202,115
537,-0.0268884245306,4203,115
538,-0.026995299384,4204,115
539,-0.0271012187004,4205,115
540,-0.0271538197994,4206,115
541,-0.0273101683706,4207,115
542,-0.0273617953062,4208,115
543,-0.0274643115699,4209,115
544,-0.0276162326336,4210,115
545,-0.0277162641287,4211,115
546,-0.027815291658,4212,115
547,-0.0279133114964,4213,115
548,-0.0280103143305,4214,115
549,-0.0281062982976,4215,115
550,-0.028153905645,4216,115
551,-0.0282483510673,4217,115
552,-0.0282951872796,4218,115
553,-0.0283880829811,4219,115
554,-0.0284799430519,4220,115
555,-0.0285707637668,4221,115
556,-0.028660543263,4222,115
557,-0.0287932492793,4223,115
558,-0.028836959973,4224,115
559,-0.0289665162563,4225,115
560,-0.0290091764182,4226,115
561,-0.029135575518,4227,115
562,-0.0291771814227,4228,115
563,-0.0292596016079,4229,115
564,-0.0293812565506,4230,115
565,-0.0294212792069,4231,115
566,-0.0295397620648,4232,115
567,-0.029578730464,4233,115
568,-0.0296174343675,4234,115
569,-0.0297319665551,4235,115
570,-0.0298070050776,4236,115
571,-0.0298809930682,4237,115
572,-0.0299539286643,4238,115
573,-0.0300258155912,4239,115
574,-0.0300966557115,4240,115
575,-0.0301316846162,4241,115
576,-0.030235208571,4242,115
577,-0.0303029250354,4243,115
578,-0.0303363930434,4244,115
579,-0.030435251072,4245,115
580,-0.0304676890373,4246,115
581,-0.030563460663,4247,115
582,-0.0305948723108,4248,115
583,-0.0306260269135,4249,115
584,-0.0307179689407,4250,115
585,-0.0307481065392,4251,115
586,-0.0308370087296,4252,115
587,-0.0308661386371,4253,115
588,-0.0309236496687,4254,115
589,-0.0309801623225,4255,115
590,-0.0310356784612,4256,115
591,-0.0311171021312,4257,115
592,-0.031170155853,4258,115
593,-0.0312222316861,4259,115
594,-0.0312733352184,4260,115
595,-0.03132346645,4261,115
596,-0.0313726402819,4262,115
597,-0.03139686957,4263,115
598,-0.0314208604395,4264,115
599,-0.0314681269228,4265,115
600,-0.0315144471824,4266,115
601,-0.0315598286688,4267,115
602,-0.0316261574626,4268,115
603,-0.0316692143679,4269,115
604,-0.0316904000938,4270,115
605,-0.0317525826395,4271,115
606,-0.0317728556693,4272,115
607,-0.0318323262036,4273,115
608,-0.0318708457053,4274,115
609,-0.0319084785879,4275,115
610,-0.031945232302,4276,115
611,-0.0319811068475,4277,115
612,-0.0319987162948,4278,115
613,-0.0320332832634,4279,115
614,-0.0320669896901,4280,115
615,-0.0320998430252,4281,115
616,-0.0321318469942,4282,115
617,-0.0321630053222,4283,115
618,-0.0321933291852,4284,115
619,-0.0322081819177,4285,115
620,-0.0322514995933,4286,115
621,-0.0322793535888,4287,115
622,-0.0323063917458,4288,115
623,-0.0323326289654,4289,115
624,-0.0323580764234,4290,115
625,-0.0323827303946,4291,115
626,-0.0324065983295,4292,115
627,-0.0324182398617,4293,115
628,-0.0324409417808,4294,115
629,-0.0324520021677,4295,115
630,-0.0324840433896,4296,115
631,-0.0325044579804,4297,115
632,-0.032514385879,4298,115
633,-0.0325430519879,4299,115
634,-0.0325612425804,4300,115
635,-0.032578703016,4301,115
636,-0.0325871631503,4302,115
637,-0.0326035432518,4303,115
638,-0.0326267853379,4304,115
639,-0.0326413996518,4305,115
640,-0.0326553173363,4306,115
641,-0.0326685495675,4307,115
642,-0.032674908638,4308,115
643,-0.0326871201396,4309,115
644,-0.0326986610889,4310,115
645,-0.0327041819692,4311,115
646,-0.0327197574079,4312,115
647,-0.0327293276787,4313,115
648,-0.0327382534742,4314,115
649,-0.0327424779534,4315,115
650,-0.0327504500747,4316,115
651,-0.0327612422407,4317,115
652,-0.0327676683664,4318,115
653,-0.032770652324,4319,115
654,-0.0327787064016,4320,115
655,-0.0327833294868,4321,115
656,-0.0327873639762,4322,115
657,-0.0327891670167,4323,115
658,-0.0327923409641,4324,115
659,-0.032794944942,4325,115
660,-0.0327969901264,4326,115
661,-0.0327984839678,4327,115
662,-0.0327994339168,4328,115
663,-0.0327998511493,4329,115
664,-0.0327997393906,4330,115
665,-0.032799102366,4331,115
666,-0.0327985920012,4332,115
667,-0.0327963009477,4333,115
668,-0.0327941514552,4334,115
669,-0.0327915139496,4335,115
670,-0.0327883921564,4336,115
671,-0.0327866524458,4337,115
672,-0.0327807329595,4338,115
673,-0.0327785313129,4339,115
674,-0.0327737852931,4340,115
675,-0.0327712446451,4341,115
676,-0.0327629670501,4342,115
677,-0.0327599905431,4343,115
678,-0.0327537208796,4344,115
679,-0.0327435396612,4345,115
680,-0.0327399410307,4346,115
681,-0.032732449472,4347,115
682,-0.0327204763889,4348,115
683,-0.0327162966132,4349,115
684,-0.0327076539397,4350,115
