,amplitude,tstep,vfp
0,0.0100043900311,2625,121
1,0.0100751733407,2626,121
2,0.01028731931,2627,121
3,0.0104285143316,2628,121
4,0.0104990210384,2629,121
5,0.0106398165226,2630,121
6,0.0107802804559,2631,121
7,0.0109203541651,2632,121
8,0.0109902294353,2633,121
9,0.0111991232261,2634,121
10,0.0113377105445,2635,121
11,0.0114756934345,2636,121
12,0.0116130206734,2637,121
13,0.0117496382445,2638,121
14,0.0118854930624,2639,121
15,0.0120205348358,2640,121
16,0.0121547123417,2641,121
17,0.0122879734263,2642,121
18,0.0124202687293,2643,121
19,0.0124860387295,2644,121
20,0.0126167936251,2645,121
21,0.0127464607358,2646,121
22,0.0128749953583,2647,121
23,0.0130023481324,2648,121
24,0.0131284752861,2649,121
25,0.0132533311844,2650,121
26,0.0133152706549,2651,121
27,0.0134990653023,2652,121
28,0.0136198578402,2653,121
29,0.013739218004,2654,121
30,0.0138571057469,2655,121
31,0.0139734838158,2656,121
32,0.0140310972929,2657,121
33,0.0141451479867,2658,121
34,0.0142576051876,2659,121
35,0.0143684362993,2660,121
36,0.0144776152447,2661,121
37,0.0145851112902,2662,121
38,0.0146908983588,2663,121
39,0.0147431427613,2664,121
40,0.0148463221267,2665,121
41,0.0149977710098,2666,121
42,0.0150964958593,2667,121
43,0.0151934064925,2668,121
44,0.01524117589,2669,121
45,0.0153353372589,2670,121
46,0.0154731078073,2671,121
47,0.0155180990696,2672,121
48,0.0156502667814,2673,121
49,0.015693385154,2674,121
50,0.01573603414,2675,121
51,0.0158611498773,2676,121
52,0.0159019120038,2677,121
53,0.0160213708878,2678,121
54,0.0160986557603,2679,121
55,0.0161740630865,2680,121
56,0.0162476021796,2681,121
57,0.0162836704403,2682,121
58,0.0163890961558,2683,121
59,0.0164570771158,2684,121
60,0.016490381211,2685,121
61,0.016555627808,2686,121
62,0.016619073227,2687,121
63,0.0166807323694,2688,121
64,0.0167699251324,2689,121
65,0.0167987905443,2690,121
66,0.0168552305549,2691,121
67,0.0169099774212,2692,121
68,0.0169367250055,2693,121
69,0.0170145072043,2694,121
70,0.0170643460006,2695,121
71,0.017112608999,2696,121
72,0.0171361602843,2697,121
73,0.0172045473009,2698,121
74,0.0172482952476,2699,121
75,0.0172906033695,2700,121
76,0.0173315126449,2701,121
77,0.017371064052,2702,121
78,0.0173903442919,2703,121
79,0.0174279361963,2704,121
80,0.0174642689526,2705,121
81,0.0174993909895,2706,121
82,0.0175165105611,2707,121
83,0.0175661649555,2708,121
84,0.0175979062915,2709,121
85,0.0176133867353,2710,121
86,0.0176583267748,2711,121
87,0.0176870934665,2712,121
88,0.0177149605006,2713,121
89,0.0177419800311,2714,121
90,0.017768194899,2715,121
91,0.0177936516702,2716,121
92,0.0178183931857,2717,121
93,0.0178424734622,2718,121
94,0.0178659390658,2719,121
95,0.0178774558008,2720,121
96,0.0179000850767,2721,121
97,0.0179222133011,2722,121
98,0.0179438851774,2723,121
99,0.017965150997,2724,121
100,0.0179860498756,2725,121
101,0.0180066283792,2726,121
102,0.0180269312114,2727,121
103,0.0180369894952,2728,121
104,0.0180668719113,2729,121
105,0.0180767551064,2730,121
106,0.0181062128395,2731,121
107,0.0181257538497,2732,121
108,0.0181452594697,2733,121
109,0.0181647669524,2734,121
110,0.0181745346636,2735,121
111,0.0181941092014,2736,121
112,0.0182137731463,2737,121
113,0.018233558163,2738,121
114,0.0182534903288,2739,121
115,0.0182735994458,2740,121
116,0.0182939153165,2741,121
117,0.0183041635901,2742,121
118,0.0183248352259,2743,121
119,0.0183563530445,2744,121
120,0.0183777343482,2745,121
121,0.0183994304389,2746,121
122,0.018421465531,2747,121
123,0.018443852663,2748,121
124,0.0184666011482,2749,121
125,0.0184781160206,2750,121
126,0.0185014307499,2751,121
127,0.0185251366347,2752,121
128,0.0185371357948,2753,121
129,0.0185614395887,2754,121
130,0.0185986459255,2755,121
131,0.0186239592731,2756,121
132,0.0186496730894,2757,121
133,0.0186626836658,2758,121
134,0.0186889991164,2759,121
135,0.0187292098999,2760,121
136,0.018756499514,2761,121
137,0.0187841560692,2762,121
138,0.0188121758401,2763,121
139,0.0188405364752,2764,121
140,0.0188548415899,2765,121
141,0.0188692305237,2766,121
142,0.0189128443599,2767,121
143,0.0189422760159,2768,121
144,0.0189719703048,2769,121
145,0.0190018992871,2770,121
146,0.0190320387483,2771,121
147,0.0190623607486,2772,121
148,0.0190775822848,2773,121
149,0.0191234368831,2774,121
150,0.0191387757659,2775,121
151,0.0191848874092,2776,121
152,0.0192156676203,2777,121
153,0.0192464347929,2778,121
154,0.0192618053406,2779,121
155,0.0192924924195,2780,121
156,0.0193230751902,2781,121
157,0.0193535126746,2782,121
158,0.0193837657571,2783,121
159,0.0193988122046,2784,121
160,0.0194435548037,2785,121
161,0.0194730013609,2786,121
162,0.0194875914603,2787,121
163,0.0195307824761,2788,121
164,0.0195590276271,2789,121
165,0.0195867810398,2790,121
166,0.019614001736,2791,121
167,0.0196406319737,2792,121
168,0.0196666345,2793,121
169,0.0196919571608,2794,121
170,0.019704349339,2795,121
171,0.0197285693139,2796,121
172,0.0197519883513,2797,121
173,0.0197633877397,2798,121
174,0.0197962541133,2799,121
175,0.0198067482561,2800,121
176,0.01983676292,2801,121
177,0.0198554936796,2802,121
178,0.0198731459677,2803,121
179,0.0198896769434,2804,121
180,0.0199050344527,2805,121
181,0.0199122615159,2806,121
182,0.0199320688844,2807,121
183,0.0199436582625,2808,121
184,0.0199539065361,2809,121
185,0.0199627690017,2810,121
186,0.019966667518,2811,121
187,0.0199702065438,2812,121
188,0.0199786070734,2813,121
189,0.019982310012,2814,121
190,0.0199844557792,2815,121
191,0.0199850052595,2816,121
192,0.0199846681207,2817,121
193,0.019981181249,2818,121
194,0.0199767425656,2819,121
195,0.0199738759547,2820,121
196,0.0199668370187,2821,121
197,0.0199529547244,2822,121
198,0.0199414417148,2823,121
199,0.0199349988252,2824,121
200,0.019912879914,2825,121
201,0.019904570654,2826,121
202,0.0198865272105,2827,121
203,0.0198665764183,2828,121
204,0.0198446922004,2829,121
205,0.0198330208659,2830,121
206,0.0198082048446,2831,121
207,0.0197672899812,2832,121
208,0.0197375249118,2833,121
209,0.0197218954563,2834,121
210,0.0196719951928,2835,121
211,0.0196362081915,2836,121
212,0.0195984020829,2837,121
213,0.0195585675538,2838,121
214,0.0195167064667,2839,121
215,0.0194728132337,2840,121
216,0.0194501075894,2841,121
217,0.0194268953055,2842,121
218,0.0193542093039,2843,121
219,0.0193289704621,2844,121
220,0.0192502252758,2845,121
221,0.0191952176392,2846,121
222,0.0191382095218,2847,121
223,0.019079208374,2848,121
224,0.0190489646047,2849,121
225,0.0189552791417,2850,121
226,0.0188903789967,2851,121
227,0.0188235398382,2852,121
228,0.0187893994153,2853,121
229,0.0186841133982,2854,121
230,0.0186115577817,2855,121
231,0.0185745824128,2856,121
232,0.0184992365539,2857,121
233,0.0184608735144,2858,121
234,0.0183827821165,2859,121
235,0.0182622745633,2860,121
236,0.0181797239929,2861,121
237,0.0180954281241,2862,121
238,0.018009416759,2863,121
239,0.0179657768458,2864,121
240,0.0178323443979,2865,121
241,0.0177413392812,2866,121
242,0.0176487211138,2867,121
243,0.0176018197089,2868,121
244,0.0175068415701,2869,121
245,0.0174103248864,2870,121
246,0.0173122994602,2871,121
247,0.0172627270222,2872,121
248,0.0171624943614,2873,121
249,0.0170094594359,2874,121
250,0.0169056952,2875,121
251,0.0168005730957,2876,121
252,0.0166941210628,2877,121
253,0.0165863670409,2878,121
254,0.0165320131928,2879,121
255,0.016367090866,2880,121
256,0.0162556264549,2881,121
257,0.0161429848522,2882,121
258,0.0160291939974,2883,121
259,0.0159142911434,2884,121
260,0.0157982930541,2885,121
261,0.0157398954034,2886,121
262,0.0156223261729,2887,121
263,0.0155037399381,2888,121
264,0.0153841665015,2889,121
265,0.0152636338025,2890,121
266,0.0152030158788,2891,121
267,0.0150197995827,2892,121
268,0.014958283864,2893,121
269,0.0147724561393,2894,121
270,0.0146475350484,2895,121
271,0.0145218139514,2896,121
272,0.0144586609676,2897,121
273,0.0142680685967,2898,121
274,0.0141400964931,2899,121
275,0.0140758436173,2900,121
276,0.0139468219131,2901,121
277,0.013817133382,2902,121
278,0.0136867966503,2903,121
279,0.0135558331385,2904,121
280,0.0134242679924,2905,121
281,0.0133582632989,2906,121
282,0.0132258282974,2907,121
283,0.0130261462182,2908,121
284,0.0129593210295,2909,121
285,0.0128252841532,2910,121
286,0.0126907518134,2911,121
287,0.0125557426363,2912,121
288,0.012352370657,2913,121
289,0.0122162448242,2914,121
290,0.0120797054842,2915,121
291,0.0120112849399,2916,121
292,0.0118741532788,2917,121
293,0.0117366472259,2918,121
294,0.011667760089,2919,121
295,0.0114605827257,2920,121
296,0.0113220587373,2921,121
297,0.0111832255498,2922,121
298,0.0110441036522,2923,121
299,0.0109047070146,2924,121
300,0.0108349109069,2925,121
301,0.010625156574,2926,121
302,0.010555122979,2927,121
303,0.0103447064757,2928,121
304,0.010204189457,2929,121
305,0.0100635001436,2930,121
306,-0.0101259853691,3336,121
307,-0.0102356802672,3337,121
308,-0.0105647556484,3338,121
309,-0.0106744179502,3339,121
310,-0.010893650353,3340,121
311,-0.011003206484,3341,121
312,-0.0112221576273,3342,121
313,-0.0115500707179,3343,121
314,-0.0117682479322,3344,121
315,-0.0119860116392,3345,121
316,-0.0120947211981,3346,121
317,-0.0124200731516,3347,121
318,-0.0125282397494,3348,121
319,-0.0127441119403,3349,121
320,-0.0130666540936,3350,121
321,-0.0131738036871,3351,121
322,-0.013494072482,3352,121
323,-0.0137065360323,3353,121
324,-0.0139181027189,3354,121
325,-0.0140235358849,3355,121
326,-0.0142336655408,3356,121
327,-0.0144427819178,3357,121
328,-0.0146508384496,3358,121
329,-0.0148577904329,3359,121
330,-0.0150635959581,3360,121
331,-0.0152682131156,3361,121
332,-0.0154716009274,3362,121
333,-0.0155728226528,3363,121
334,-0.0158745404333,3364,121
335,-0.0160740185529,3365,121
336,-0.0162721220404,3366,121
337,-0.0163706466556,3367,121
338,-0.0165666285902,3368,121
339,-0.0167611539364,3369,121
340,-0.016954196617,3370,121
341,-0.0170501545072,3371,121
342,-0.0173357222229,3372,121
343,-0.0175241567194,3373,121
344,-0.017711000517,3374,121
345,-0.0178962387145,3375,121
346,-0.0180798470974,3376,121
347,-0.01826181449,3377,121
348,-0.0183521769941,3378,121
349,-0.0186207406223,3379,121
350,-0.0187976751477,3380,121
351,-0.0189729072154,3381,121
352,-0.0191464219242,3382,121
353,-0.0193182174116,3383,121
354,-0.0194882787764,3384,121
355,-0.0195726584643,3385,121
356,-0.0197401195765,3386,121
357,-0.0199058391154,3387,121
358,-0.0199880413711,3388,121
359,-0.020232046023,3389,121
360,-0.0203125104308,3390,121
361,-0.0204721372575,3391,121
362,-0.0207083262503,3392,121
363,-0.0208636317402,3393,121
364,-0.0210172198713,3394,121
365,-0.0210933741182,3395,121
366,-0.0213192924857,3396,121
367,-0.0214678030461,3397,121
368,-0.0215414334089,3398,121
369,-0.0216874536127,3399,121
370,-0.0219034142792,3400,121
371,-0.0219745915383,3401,121
372,-0.0220453701913,3402,121
373,-0.0222553387284,3403,121
374,-0.0223933719099,3404,121
375,-0.0224618129432,3405,121
376,-0.0225975587964,3406,121
377,-0.0227318182588,3407,121
378,-0.0228646211326,3408,121
379,-0.0230611525476,3409,121
380,-0.0231904406101,3410,121
381,-0.0232545770705,3411,121
382,-0.0234450120479,3412,121
383,-0.023507848382,3413,121
384,-0.0236944817007,3414,121
385,-0.023756088689,3415,121
386,-0.0238784216344,3416,121
387,-0.0239996090531,3417,121
388,-0.0241197049618,3418,121
389,-0.0242387447506,3419,121
390,-0.0243567712605,3420,121
391,-0.0244738347828,3421,121
392,-0.0245899725705,3422,121
393,-0.0247052367777,3423,121
394,-0.0248196702451,3424,121
395,-0.0249333251268,3425,121
396,-0.0249898731709,3426,121
397,-0.0251584853977,3427,121
398,-0.0252700895071,3428,121
399,-0.0253811068833,3429,121
400,-0.0254364162683,3430,121
401,-0.0255466587842,3431,121
402,-0.0256016030908,3432,121
403,-0.0257658157498,3433,121
404,-0.0258748363703,3434,121
405,-0.0259292311966,3435,121
406,-0.0260378178209,3436,121
407,-0.0261461772025,3437,121
408,-0.0262543614954,3438,121
409,-0.0263624228537,3439,121
410,-0.0265243966132,3440,121
411,-0.0265783835202,3441,121
412,-0.026740398258,3442,121
413,-0.0268485266715,3443,121
414,-0.0269026458263,3444,121
415,-0.0270110145211,3445,121
416,-0.0271196104586,3446,121
417,-0.027228474617,3447,121
418,-0.0272830203176,3448,121
419,-0.0274471882731,3449,121
420,-0.0275571271777,3450,121
421,-0.0276675131172,3451,121
422,-0.0277783814818,3452,121
423,-0.0278897769749,3453,121
424,-0.0280017331243,3454,121
425,-0.0281142927706,3455,121
426,-0.0281708091497,3456,121
427,-0.0282843317837,3457,121
428,-0.0284559112042,3458,121
429,-0.028513463214,3459,121
430,-0.0286872517318,3460,121
431,-0.0287455655634,3461,121
432,-0.0288040805608,3462,121
433,-0.0289808437228,3463,121
434,-0.0290997289121,3464,121
435,-0.0291594900191,3465,121
436,-0.0293400771916,3466,121
437,-0.0294615682214,3467,121
438,-0.0295839514583,3468,121
439,-0.0297072306275,3469,121
440,-0.0298314169049,3470,121
441,-0.0299565065652,3471,121
442,-0.0300825051963,3472,121
443,-0.0301458407193,3473,121
444,-0.0303371958435,3474,121
445,-0.0304658766836,3475,121
446,-0.0305305439979,3476,121
447,-0.0305954255164,3477,121
448,-0.030791349709,3478,121
449,-0.0309230033308,3479,121
450,-0.03105545789,3480,121
451,-0.0311886891723,3481,121
452,-0.0313226655126,3482,121
453,-0.031457349658,3483,121
454,-0.0315249487758,3484,121
455,-0.0317287035286,3485,121
456,-0.0318652875721,3486,121
457,-0.0320024080575,3487,121
458,-0.0320711545646,3488,121
459,-0.0322780683637,3489,121
460,-0.0324164964259,3490,121
461,-0.0324858352542,3491,121
462,-0.0326247215271,3492,121
463,-0.0327638238668,3493,121
464,-0.0329030789435,3494,121
465,-0.0330424159765,3495,121
466,-0.0331817492843,3496,121
467,-0.0333210043609,3497,121
468,-0.0333905778825,3498,121
469,-0.033598959446,3499,121
470,-0.0337374806404,3500,121
471,-0.0338755697012,3501,121
472,-0.034013133496,3502,121
473,-0.0340816900134,3503,121
474,-0.0342863015831,3504,121
475,-0.0343541093171,3505,121
476,-0.0344890505075,3506,121
477,-0.0346230119467,3507,121
478,-0.0347558706999,3508,121
479,-0.0348875187337,3509,121
480,-0.0350178405643,3510,121
481,-0.0350824706256,3511,121
482,-0.0352740213275,3512,121
483,-0.0353370532393,3513,121
484,-0.0355234406888,3514,121
485,-0.0356452986598,3515,121
486,-0.0357054658234,3516,121
487,-0.0358826927841,3517,121
488,-0.0359979607165,3518,121
489,-0.0361107550561,3519,121
490,-0.0361661948264,3520,121
491,-0.0363284237683,3521,121
492,-0.0363810844719,3522,121
493,-0.0364841967821,3523,121
494,-0.0365346036851,3524,121
495,-0.0366330444813,3525,121
496,-0.0367745086551,3526,121
497,-0.0368199422956,3527,121
498,-0.0369081124663,3528,121
499,-0.0369925871491,3529,121
500,-0.0370732285082,3530,121
501,-0.0371866859496,3531,121
502,-0.0372224375606,3532,121
503,-0.0373232401907,3533,121
504,-0.0373849049211,3534,121
505,-0.037441983819,3535,121
506,-0.0374943390489,3536,121
507,-0.0375187024474,3537,121
508,-0.0375418439507,3538,121
509,-0.0376037284732,3539,121
510,-0.0376217924058,3540,121
511,-0.0376539714634,3541,121
512,-0.0376921705902,3542,121
513,-0.0377021506429,3543,121
514,-0.0377179123461,3544,121
515,-0.037730820477,3545,121
516,-0.0377322025597,3546,121
517,-0.037727419287,3547,121
518,-0.037716653198,3548,121
519,-0.0376997068524,3549,121
520,-0.0376888848841,3550,121
521,-0.0376624949276,3551,121
522,-0.0376297086477,3552,121
523,-0.0375904291868,3553,121
524,-0.0375445894897,3554,121
525,-0.0375191830099,3555,121
526,-0.0374329164624,3556,121
527,-0.0373669564724,3557,121
528,-0.0372941643,3558,121
529,-0.0372551977634,3559,121
530,-0.0371279083192,3560,121
531,-0.0370343513787,3561,121
532,-0.0369337983429,3562,121
533,-0.0368262156844,3563,121
534,-0.0367115810513,3564,121
535,-0.0365898944438,3565,121
536,-0.0364611260593,3566,121
537,-0.0363940894604,3567,121
538,-0.0363252833486,3568,121
539,-0.0361823774874,3569,121
540,-0.0359547920525,3570,121
541,-0.03579428792,3571,121
542,-0.035626783967,3572,121
543,-0.0354523174465,3573,121
544,-0.0352709442377,3574,121
545,-0.0350827053189,3575,121
546,-0.0348876602948,3576,121
547,-0.0346858873963,3577,121
548,-0.0345824994147,3578,121
549,-0.0342624373734,3579,121
550,-0.034040927887,3580,121
551,-0.0339277647436,3581,121
552,-0.0336967073381,3582,121
553,-0.033459417522,3583,121
554,-0.0332159996033,3584,121
555,-0.0329665876925,3585,121
556,-0.0327113121748,3586,121
557,-0.0325815118849,3587,121
558,-0.032183714211,3588,121
559,-0.0320483744144,3589,121
560,-0.0316343978047,3590,121
561,-0.0313519947231,3591,121
562,-0.0310646537691,3592,121
563,-0.0307725556195,3593,121
564,-0.0304758884013,3594,121
565,-0.030174843967,3595,121
566,-0.0298696197569,3596,121
567,-0.0297155063599,3597,121
568,-0.0294043961912,3598,121
569,-0.0290896315128,3599,121
570,-0.0289309434593,3600,121
571,-0.0286111030728,3601,121
572,-0.0282881613821,3602,121
573,-0.02779844217,3603,121
574,-0.0274687707424,3604,121
575,-0.027136836201,3605,121
576,-0.0269700903445,3606,121
577,-0.0264671426266,3607,121
578,-0.0261298902333,3608,121
579,-0.0259607806802,3609,121
580,-0.0254518780857,3610,121
581,-0.0251116398722,3611,121
582,-0.0249413270503,3612,121
583,-0.0246004872024,3613,121
584,-0.0242595784366,3614,121
585,-0.0240891836584,3615,121
586,-0.0235786531121,3616,121
587,-0.0234088040888,3617,121
588,-0.0229007154703,3618,121
589,-0.0227319523692,3619,121
590,-0.0223955400288,3620,121
591,-0.0218941904604,3621,121
592,-0.0215625371784,3622,121
593,-0.0212332643569,3623,121
594,-0.0209066364914,3624,121
595,-0.0207443982363,3625,121
596,-0.0204222369939,3626,121
597,-0.020103385672,3627,121
598,-0.0199452769011,3628,121
599,-0.019476627931,3629,121
600,-0.019169235602,3630,121
601,-0.0190171413124,3631,121
602,-0.0185676477849,3632,121
603,-0.0182739384472,3633,121
604,-0.0179852601141,3634,121
605,-0.0177018456161,3635,121
606,-0.0175621788949,3636,121
607,-0.0171516761184,3637,121
608,-0.0170177612454,3638,121
609,-0.0166251212358,3639,121
610,-0.0163712017238,3640,121
611,-0.0162466652691,3641,121
612,-0.0160025451332,3642,121
613,-0.0157651789486,3643,121
614,-0.0155347324908,3644,121
615,-0.0153113631532,3645,121
616,-0.0150952199474,3646,121
617,-0.0148864407092,3647,121
618,-0.0146851567551,3648,121
619,-0.0144914891571,3649,121
620,-0.0143055450171,3650,121
621,-0.014215502888,3651,121
622,-0.0140413343906,3652,121
623,-0.013795026578,3653,121
624,-0.013640887104,3654,121
625,-0.0134948724881,3655,121
626,-0.0133570283651,3656,121
627,-0.0132273901254,3657,121
628,-0.0131656583399,3658,121
629,-0.0130483750254,3659,121
630,-0.0129393413663,3660,121
631,-0.0128385545686,3661,121
632,-0.0127912480384,3662,121
633,-0.0126616479829,3663,121
634,-0.0125854657963,3664,121
635,-0.0125174047425,3665,121
636,-0.0124574042857,3666,121
637,-0.0124304043129,3667,121
638,-0.012361289002,3668,121
639,-0.0123421726748,3669,121
640,-0.012309750542,3670,121
641,-0.0122754285112,3671,121
642,-0.0122677432373,3672,121
643,-0.0122579038143,3673,121
644,-0.0122557152063,3674,121
645,-0.0122598456219,3675,121
646,-0.0122713111341,3676,121
647,-0.0122895445675,3677,121
648,-0.0123143643141,3678,121
649,-0.0123291844502,3679,121
650,-0.0123829841614,3680,121
651,-0.0124263726175,3681,121
652,-0.0124502414837,3682,121
653,-0.0125302094966,3683,121
654,-0.0125901959836,3684,121
655,-0.0126221003011,3685,121
656,-0.0127250840887,3686,121
657,-0.0127994799986,3687,121
658,-0.0128382984549,3688,121
659,-0.0128781544045,3689,121
660,-0.0130036044866,3690,121
661,-0.0130472667515,3691,121
662,-0.0131371403113,3692,121
663,-0.0132301794365,3693,121
664,-0.0133750326931,3694,121
665,-0.0134245799854,3695,121
666,-0.013576483354,3696,121
667,-0.0136800901964,3697,121
668,-0.0137324817479,3698,121
669,-0.0138915311545,3699,121
670,-0.013998741284,3700,121
671,-0.0141065251082,3701,121
672,-0.0142145743594,3702,121
673,-0.0142685975879,3703,121
674,-0.0143225695938,3704,121
675,-0.0144837750122,3705,121
676,-0.0145902624354,3706,121
677,-0.0146956015378,3707,121
678,-0.0147477453575,3708,121
679,-0.0148507785052,3709,121
680,-0.0149518884718,3710,121
681,-0.0150507735088,3711,121
