,amplitude,tstep,vfp
0,-0.0100052524358,4374,121
1,-0.0100368605927,4375,121
2,-0.0100679900497,4376,121
3,-0.0100833810866,4377,121
4,-0.0101138269529,4378,121
5,-0.0101438406855,4379,121
6,-0.0101734418422,4380,121
7,-0.0102171162143,4381,121
8,-0.0102457739413,4382,121
9,-0.0102740889415,4383,121
10,-0.0102881239727,4384,121
11,-0.0103020807728,4385,121
12,-0.0103435060009,4386,121
13,-0.0103707788512,4387,121
14,-0.0103843193501,4388,121
15,-0.0104112206027,4389,121
16,-0.0104511585087,4390,121
17,-0.0104775410146,4391,121
18,-0.0105037484318,4392,121
19,-0.0105167925358,4393,121
20,-0.0105557208881,4394,121
21,-0.01058152318,4395,121
22,-0.0106072276831,4396,121
23,-0.0106328548864,4397,121
24,-0.0106456466019,4398,121
25,-0.0106711890548,4399,121
26,-0.0106839481741,4400,121
27,-0.0107094477862,4401,121
28,-0.0107476888224,4402,121
29,-0.0107604414225,4403,121
30,-0.0107859680429,4404,121
31,-0.0108115375042,4405,121
32,-0.0108500029892,4406,121
33,-0.0108628608286,4407,121
34,-0.0109015731141,4408,121
35,-0.0109275085852,4409,121
36,-0.0109405228868,4410,121
37,-0.0109666427597,4411,121
38,-0.0109929013997,4412,121
39,-0.0110325710848,4413,121
40,-0.0110458768904,4414,121
41,-0.0110726114362,4415,121
42,-0.0110995238647,4416,121
43,-0.011126623489,4417,121
44,-0.011153918691,4418,121
45,-0.0111814150587,4419,121
46,-0.01120911818,4420,121
47,-0.0112370345742,4421,121
48,-0.0112651679665,4422,121
49,-0.0112935220823,4423,121
50,-0.0113221015781,4424,121
51,-0.011350906454,4425,121
52,-0.0113653931767,4426,121
53,-0.0114091960713,4427,121
54,-0.0114386808127,4428,121
55,-0.0114535074681,4429,121
56,-0.0114833302796,4430,121
57,-0.0115133728832,4431,121
58,-0.0115436334163,4432,121
59,-0.0115741062909,4433,121
60,-0.0116047859192,4434,121
61,-0.0116356676444,4435,121
62,-0.0116667421535,4436,121
63,-0.011698002927,4437,121
64,-0.0117294387892,4438,121
65,-0.0117452191189,4439,121
66,-0.0117927975953,4440,121
67,-0.0118087287992,4441,121
68,-0.0118567273021,4442,121
69,-0.0118888765574,4443,121
70,-0.0119049903005,4444,121
71,-0.0119372867048,4445,121
72,-0.0119696622714,4446,121
73,-0.0120021020994,4447,121
74,-0.0120183406398,4448,121
75,-0.0120508428663,4449,121
76,-0.0120996283367,4450,121
77,-0.0121321408078,4451,121
78,-0.0121483877301,4452,121
79,-0.0121970577165,4453,121
80,-0.012229418382,4454,121
81,-0.0122455647215,4455,121
82,-0.0122777745128,4456,121
83,-0.0123258400708,4457,121
84,-0.0123576810583,4458,121
85,-0.0123893329874,4459,121
86,-0.0124050797895,4460,121
87,-0.0124207707122,4461,121
88,-0.0124674672261,4462,121
89,-0.0124828983098,4463,121
90,-0.0125135350972,4464,121
91,-0.0125588839874,4465,121
92,-0.0125886704773,4466,121
93,-0.0126180704683,4467,121
94,-0.0126470532268,4468,121
95,-0.0126755908132,4469,121
96,-0.0127036580816,4470,121
97,-0.0127175049856,4471,121
98,-0.0127582577989,4472,121
99,-0.0127847343683,4473,121
100,-0.0127977533266,4474,121
101,-0.0128233367577,4475,121
102,-0.0128358956426,4476,121
103,-0.0128605226055,4477,121
104,-0.0128961894661,4478,121
105,-0.0129077257589,4479,121
106,-0.0129412226379,4480,121
107,-0.0129625918344,4481,121
108,-0.0129831582308,4482,121
109,-0.0130028985441,4483,121
110,-0.0130217783153,4484,121
111,-0.0130397770554,4485,121
112,-0.0130568630993,4486,121
113,-0.0130730103701,4487,121
114,-0.0130881937221,4488,121
115,-0.0131023908034,4489,121
116,-0.0131091093644,4490,121
117,-0.0131155727431,4491,121
118,-0.0131333917379,4492,121
119,-0.0131387999281,4493,121
120,-0.0131533816457,4494,121
121,-0.0131617104635,4495,121
122,-0.013165447861,4496,121
123,-0.0131720593199,4497,121
124,-0.0131797771901,4498,121
125,-0.0131834261119,4499,121
126,-0.0131847942248,4500,121
127,-0.0131866112351,4501,121
128,-0.0131870014593,4502,121
129,-0.0131856808439,4503,121
130,-0.0131845409051,4504,121
131,-0.0131812915206,4505,121
132,-0.0131791811436,4506,121
133,-0.0131708793342,4507,121
134,-0.0131674520671,4508,121
135,-0.0131551669911,4509,121
136,-0.0131452986971,4510,121
137,-0.0131398579106,4511,121
138,-0.0131279593334,4512,121
139,-0.0131075568497,4513,121
140,-0.0131000727415,4514,121
141,-0.0130840754136,4515,121
142,-0.013057500124,4516,121
143,-0.0130380643532,4517,121
144,-0.0130172530189,4518,121
145,-0.0130063304678,4519,121
146,-0.0129834571853,4520,121
147,-0.0129715064541,4521,121
148,-0.012946578674,4522,121
149,-0.0129066295922,4523,121
150,-0.0128783024848,4524,121
151,-0.0128636332229,4525,121
152,-0.0128176156431,4526,121
153,-0.012801611796,4527,121
154,-0.0127686122432,4528,121
155,-0.0127166612074,4529,121
156,-0.0126986969262,4530,121
157,-0.0126618063077,4531,121
158,-0.0126236490905,4532,121
159,-0.0125640733168,4533,121
160,-0.0125435981899,4534,121
161,-0.0125017445534,4535,121
162,-0.0124803679064,4536,121
163,-0.0124367317185,4537,121
164,-0.0123691065237,4538,121
165,-0.0123459966853,4539,121
166,-0.0122750112787,4540,121
167,-0.012226334773,4541,121
168,-0.0121766077355,4542,121
169,-0.0121513595805,4543,121
170,-0.0120741156861,4544,121
171,-0.012021407485,4545,121
172,-0.0119947008789,4546,121
173,-0.0119406022131,4547,121
174,-0.0118578001857,4548,121
175,-0.0118015455082,4549,121
176,-0.0117731131613,4550,121
177,-0.011715663597,4551,121
178,-0.0116574633867,4552,121
179,-0.0115985451266,4553,121
180,-0.0115389470011,4554,121
181,-0.0115089043975,4555,121
182,-0.0114178573713,4556,121
183,-0.0113564422354,4557,121
184,-0.0112945009023,4558,121
185,-0.0112320696935,4559,121
186,-0.0111691886559,4560,121
187,-0.0111058969051,4561,121
188,-0.0110422391444,4562,121
189,-0.0109782535583,4563,121
190,-0.0109461518005,4564,121
191,-0.010881755501,4565,121
192,-0.0108494702727,4566,121
193,-0.0107523323968,4567,121
194,-0.0106873912737,4568,121
195,-0.0106548825279,4569,121
196,-0.0105572650209,4570,121
197,-0.0104921646416,4571,121
198,-0.0104596242309,4572,121
199,-0.0103621017188,4573,121
200,-0.0103296451271,4574,121
201,-0.010264839977,4575,121
202,-0.0101679842919,4576,121
203,-0.0101358136162,4577,121
204,-0.0100716762245,4578,121
205,-0.0100078452379,4579,121
0,-0.0100252516568,4431,122
1,-0.0100569939241,4432,122
2,-0.0100890165195,4433,122
3,-0.0101051265374,4434,122
4,-0.0101538458839,4435,122
5,-0.0101866312325,4436,122
6,-0.0102196438238,4437,122
7,-0.010252869688,4438,122
8,-0.0102862967178,4439,122
9,-0.0103199109435,4440,122
10,-0.0103536956012,4441,122
11,-0.0103876385838,4442,122
12,-0.0104217194021,4443,122
13,-0.0104388091713,4444,122
14,-0.0104559278116,4445,122
15,-0.0105074383318,4446,122
16,-0.0105246528983,4447,122
17,-0.0105764046311,4448,122
18,-0.0105936834589,4449,122
19,-0.0106455739588,4450,122
20,-0.0106628816575,4451,122
21,-0.0106975007802,4452,122
22,-0.0107321105897,4453,122
23,-0.0107839638367,4454,122
24,-0.0108184674755,4455,122
25,-0.0108528966084,4456,122
26,-0.0108872354031,4457,122
27,-0.010921462439,4458,122
28,-0.0109385279939,4459,122
29,-0.0109725538641,4460,122
30,-0.0110064223409,4461,122
31,-0.011040115729,4462,122
32,-0.0110736135393,4463,122
33,-0.0111068990082,4464,122
34,-0.011139950715,4465,122
35,-0.0111727537587,4466,122
36,-0.0111890537664,4467,122
37,-0.0112375281751,4468,122
38,-0.0112694632262,4469,122
39,-0.0113010723144,4470,122
40,-0.011316748336,4471,122
41,-0.0113478321582,4472,122
42,-0.0113937556744,4473,122
43,-0.0114238746464,4474,122
44,-0.0114387786016,4475,122
45,-0.0114535754547,4476,122
46,-0.0114973019809,4477,122
47,-0.0115258777514,4478,122
48,-0.0115539748222,4479,122
49,-0.0115815708414,4480,122
50,-0.0116086527705,4481,122
51,-0.0116219948977,4482,122
52,-0.0116611989215,4483,122
53,-0.0116866314784,4484,122
54,-0.0117114791647,4485,122
55,-0.0117236804217,4486,122
56,-0.0117476247251,4487,122
57,-0.0117823667824,4488,122
58,-0.0118047250435,4489,122
59,-0.0118156569079,4490,122
60,-0.0118370167911,4491,122
61,-0.0118576921523,4492,122
62,-0.0118677699938,4493,122
63,-0.0118969380856,4494,122
64,-0.0119063006714,4495,122
65,-0.0119244754314,4496,122
66,-0.0119503336027,4497,122
67,-0.0119585748762,4498,122
68,-0.0119744762778,4499,122
69,-0.0119895953685,4500,122
70,-0.0120107829571,4501,122
71,-0.0120238987729,4502,122
72,-0.0120301507413,4503,122
73,-0.0120420306921,4504,122
74,-0.0120530780405,4505,122
75,-0.0120632816106,4506,122
76,-0.0120726311579,4507,122
77,-0.0120811210945,4508,122
78,-0.0120850400999,4509,122
79,-0.0120922243223,4510,122
80,-0.0121013484895,4511,122
81,-0.0121039459482,4512,122
82,-0.0121104000136,4513,122
83,-0.0121135786176,4514,122
84,-0.0121148284525,4515,122
85,-0.0121172191575,4516,122
86,-0.0121176736429,4517,122
87,-0.0121172135696,4518,122
88,-0.0121158389375,4519,122
89,-0.012114807032,4520,122
90,-0.0121120531112,4521,122
91,-0.012108379975,4522,122
92,-0.0121037885547,4523,122
93,-0.0120982760563,4524,122
94,-0.0120951756835,4525,122
95,-0.0120882885531,4526,122
96,-0.0120804859325,4527,122
97,-0.0120670711622,4528,122
98,-0.0120569914579,4529,122
99,-0.0120460102335,4530,122
100,-0.0120341274887,4531,122
101,-0.0120213516057,4532,122
102,-0.0120076909661,4533,122
103,-0.0119931483641,4534,122
104,-0.0119855506346,4535,122
105,-0.0119777340442,4536,122
106,-0.011952990666,4537,122
107,-0.0119354277849,4538,122
108,-0.0119170211256,4539,122
109,-0.0118977818638,4540,122
110,-0.0118777202442,4541,122
111,-0.0118673853576,4542,122
112,-0.0118351746351,4543,122
113,-0.011824041605,4544,122
114,-0.0117894783616,4545,122
115,-0.0117654800415,4546,122
116,-0.0117407338694,4547,122
117,-0.0117280846462,4548,122
118,-0.0116890575737,4549,122
119,-0.0116756940261,4550,122
120,-0.0116484472528,4551,122
121,-0.0116205206141,4552,122
122,-0.011591931805,4553,122
123,-0.0115626966581,4554,122
124,-0.0115328328684,4555,122
125,-0.0115023562685,4556,122
126,-0.0114712873474,4557,122
127,-0.0114396419376,4558,122
128,-0.0114074405283,4559,122
129,-0.0113911367953,4560,122
130,-0.0113581363112,4561,122
131,-0.01130768843,4562,122
132,-0.0112734548748,4563,122
133,-0.0112387612462,4564,122
134,-0.0112212477252,4565,122
135,-0.0111859040335,4566,122
136,-0.0111680785194,4567,122
137,-0.0111140143126,4568,122
138,-0.011077507399,4569,122
139,-0.0110406540334,4570,122
140,-0.0110034765676,4571,122
141,-0.0109659945592,4572,122
142,-0.0109471473843,4573,122
143,-0.0108902053908,4574,122
144,-0.0108710983768,4575,122
145,-0.0108134495094,4576,122
146,-0.0107941292226,4577,122
147,-0.0107358973473,4578,122
148,-0.0107164038345,4579,122
149,-0.0106773097068,4580,122
150,-0.0106380898505,4581,122
151,-0.0106184370816,4582,122
152,-0.0105790644884,4583,122
153,-0.0105198696256,4584,122
154,-0.0104803452268,4585,122
155,-0.0104407938197,4586,122
156,-0.010401234962,4587,122
157,-0.0103616872802,4588,122
158,-0.0103221712634,4589,122
159,-0.010282705538,4590,122
160,-0.0102433059365,4591,122
161,-0.0102039910853,4592,122
162,-0.0101647814736,4593,122
163,-0.0101452199742,4594,122
164,-0.0100867357105,4595,122
165,-0.0100673148409,4596,122
166,-0.0100479340181,4597,122
167,-0.0100093027577,4598,122
0,-0.0104089975357,4608,123
1,-0.010365578346,4609,123
2,-0.0103506157175,4610,123
3,-0.0103199696168,4611,123
4,-0.0102883670479,4612,123
5,-0.0102558247745,4613,123
6,-0.0102223549038,4614,123
7,-0.0102052772418,4615,123
8,-0.0101704457775,4616,123
9,-0.0101165389642,4617,123
10,-0.0100795179605,4618,123
11,-0.0100416550413,4619,123
12,-0.0100029688329,4620,123
13,-0.010001083836,4522,123
14,-0.0100196031854,4523,123
15,-0.0100289266557,4524,123
16,-0.0100571457297,4525,123
17,-0.0100666284561,4526,123
18,-0.0100952871144,4527,123
19,-0.01010490302,4528,123
20,-0.0101339183748,4529,123
21,-0.0101533830166,4530,123
22,-0.0101631451398,4531,123
23,-0.0101925265044,4532,123
24,-0.0102121746168,4533,123
25,-0.0102318488061,4534,123
26,-0.0102416910231,4535,123
27,-0.0102613708004,4536,123
28,-0.0102810319513,4537,123
29,-0.010300654918,4538,123
30,-0.0103104449809,4539,123
31,-0.0103397024795,4540,123
32,-0.0103494087234,4541,123
33,-0.0103783486411,4542,123
34,-0.0103974714875,4543,123
35,-0.0104069709778,4544,123
36,-0.0104351956397,4545,123
37,-0.0104537559673,4546,123
38,-0.0104629509151,4547,123
39,-0.0104811526835,4548,123
40,-0.0104990880936,4549,123
41,-0.0105167329311,4550,123
42,-0.0105340648443,4551,123
43,-0.0105510596186,4552,123
44,-0.0105594238266,4553,123
45,-0.0105758691207,4554,123
46,-0.0105919195339,4555,123
47,-0.010615198873,4556,123
48,-0.0106227360666,4557,123
49,-0.010644633323,4558,123
50,-0.0106516843662,4559,123
51,-0.0106720570475,4560,123
52,-0.0106785781682,4561,123
53,-0.0106972884387,4562,123
54,-0.0107090249658,4563,123
55,-0.010720144026,4564,123
56,-0.0107254665345,4565,123
57,-0.0107356216758,4566,123
58,-0.010745103471,4567,123
59,-0.0107495868579,4568,123
60,-0.0107580237091,4569,123
61,-0.0107693141326,4570,123
62,-0.0107727050781,4571,123
63,-0.0107817193493,4572,123
64,-0.0107843326405,4573,123
65,-0.0107909580693,4574,123
66,-0.0107943434268,4575,123
67,-0.0107968831435,4576,123
68,-0.0107985585928,4577,123
69,-0.0107993548736,4578,123
70,-0.0107992561534,4579,123
71,-0.0107982484624,4580,123
72,-0.0107973990962,4581,123
73,-0.0107950018719,4582,123
74,-0.0107916593552,4583,123
75,-0.0107873622328,4584,123
76,-0.0107848513871,4585,123
77,-0.0107791004702,4586,123
78,-0.0107686277479,4587,123
79,-0.0107604013756,4588,123
80,-0.0107511682436,4589,123
81,-0.0107409236953,4590,123
82,-0.0107296584174,4591,123
83,-0.0107173705474,4592,123
84,-0.0107040507719,4593,123
85,-0.010697003454,4594,123
86,-0.0106821330264,4595,123
87,-0.0106662251055,4596,123
88,-0.0106492768973,4597,123
89,-0.0106404135004,4598,123
90,-0.0106122624129,4599,123
91,-0.010592197068,4600,123
92,-0.0105710960925,4601,123
93,-0.0105489622802,4602,123
94,-0.0105257993564,4603,123
95,-0.0105016129091,4604,123
96,-0.0104764094576,4605,123
97,-0.0104501964524,4606,123
98,-0.0104367118329,4607,123
0,-0.0100409779698,4385,124
1,-0.0100717851892,4386,124
2,-0.0101630091667,4387,124
3,-0.0101930135861,4388,124
4,-0.010252407752,4389,124
5,-0.0103399362415,4390,124
6,-0.010397230275,4391,124
7,-0.0104536665604,4392,124
8,-0.0104815596715,4393,124
9,-0.0105639193207,4394,124
10,-0.0105909286067,4395,124
11,-0.0106706116349,4396,124
12,-0.0106967203319,4397,124
13,-0.0107736708596,4398,124
14,-0.0107988603413,4399,124
15,-0.0108485426754,4400,124
16,-0.0108972899616,4401,124
17,-0.0109213106334,4402,124
18,-0.0109919505194,4403,124
19,-0.0110150212422,4404,124
20,-0.0110604446381,4405,124
21,-0.0111267762259,4406,124
22,-0.0111484033987,4407,124
23,-0.01121182926,4408,124
24,-0.0112528949976,4409,124
25,-0.0112929847091,4410,124
26,-0.0113126626238,4411,124
27,-0.0113702267408,4412,124
28,-0.0113889249042,4413,124
29,-0.0114255845547,4414,124
30,-0.0114435469732,4415,124
31,-0.0114959618077,4416,124
32,-0.0115296803415,4417,124
33,-0.0115624209866,4418,124
34,-0.0115941856056,4419,124
35,-0.0116249769926,4420,124
36,-0.0116547979414,4421,124
37,-0.0116836540401,4422,124
38,-0.0117115480825,4423,124
39,-0.0117384847254,4424,124
40,-0.0117515949532,4425,124
41,-0.0117895044386,4426,124
42,-0.0118136014789,4427,124
43,-0.011836765334,4428,124
44,-0.0118479989469,4429,124
45,-0.0118590025231,4430,124
46,-0.0118906386197,4431,124
47,-0.0119105940685,4432,124
48,-0.0119296526536,4433,124
49,-0.0119388476014,4434,124
50,-0.0119651127607,4435,124
51,-0.0119734322652,4436,124
52,-0.0119971008971,4437,124
53,-0.0120118185878,4438,124
54,-0.0120257018134,4439,124
55,-0.0120387598872,4440,124
56,-0.0120510067791,4441,124
57,-0.0120568294078,4442,124
58,-0.0120731154457,4443,124
59,-0.0120781548321,4444,124
60,-0.0120876599103,4445,124
61,-0.0120921293274,4446,124
62,-0.0121005102992,4447,124
63,-0.0121117131785,4448,124
64,-0.0121150901541,4449,124
65,-0.0121241714805,4450,124
66,-0.0121293710545,4451,124
67,-0.0121339047328,4452,124
68,-0.0121359266341,4453,124
69,-0.0121394908056,4454,124
70,-0.0121424263343,4455,124
71,-0.0121447499841,4456,124
72,-0.0121471239254,4457,124
73,-0.0121476268396,4458,124
74,-0.0121482107788,4459,124
75,-0.0121482471004,4460,124
76,-0.0121477525681,4461,124
77,-0.0121467411518,4462,124
78,-0.0121452324092,4463,124
79,-0.0121432412416,4464,124
80,-0.0121420696378,4465,124
81,-0.0121378777549,4466,124
82,-0.0121345380321,4467,124
83,-0.0121307801455,4468,124
84,-0.0121266217902,4469,124
85,-0.01212207973,4470,124
86,-0.0121171688661,4471,124
87,-0.0121119050309,4472,124
88,-0.0121063040569,4473,124
89,-0.012103382498,4474,124
90,-0.0120973056182,4475,124
91,-0.0120909297839,4476,124
92,-0.0120842708275,4477,124
93,-0.0120773436502,4478,124
94,-0.0120737841353,4479,124
95,-0.0120627414435,4480,124
96,-0.0120550943539,4481,124
97,-0.0120472377166,4482,124
98,-0.0120391827077,4483,124
99,-0.0120309442282,4484,124
100,-0.0120225325227,4485,124
101,-0.012013961561,4486,124
102,-0.0120096206665,4487,124
103,-0.0119963912293,4488,124
104,-0.011991918087,4489,124
105,-0.011982884258,4490,124
106,-0.0119737442583,4491,124
107,-0.0119691370055,4492,124
108,-0.0119551839307,4493,124
109,-0.0119504928589,4494,124
110,-0.0119410576299,4495,124
111,-0.0119267869741,4496,124
112,-0.0119172083214,4497,124
113,-0.0119075868279,4498,124
114,-0.0118979290128,4499,124
115,-0.0118882423267,4500,124
116,-0.0118785323575,4501,124
117,-0.0118688056245,4502,124
118,-0.0118590658531,4503,124
119,-0.0118541931733,4504,124
120,-0.0118444459513,4505,124
121,-0.0118346987292,4506,124
122,-0.0118249533698,4507,124
123,-0.0118152135983,4508,124
124,-0.0118103465065,4509,124
125,-0.0117957601324,4510,124
126,-0.0117909042165,4511,124
127,-0.0117763513699,4512,124
128,-0.0117715075612,4513,124
129,-0.0117569928989,4514,124
130,-0.0117473313585,4515,124
131,-0.0117376819253,4516,124
132,-0.011728040874,4517,124
133,-0.011718406342,4518,124
134,-0.0117135904729,4519,124
135,-0.0117039596662,4520,124
136,-0.0116943288594,4521,124
137,-0.0116846915334,4522,124
138,-0.0116798700765,4523,124
139,-0.0116653833538,4524,124
140,-0.011655703187,4525,124
141,-0.0116459960118,4526,124
142,-0.011636258103,4527,124
143,-0.0116264801472,4528,124
144,-0.0116166565567,4529,124
145,-0.0116117252037,4530,124
146,-0.011596842669,4531,124
147,-0.011591847986,4532,124
148,-0.011581803672,4533,124
149,-0.0115665784106,4534,124
150,-0.0115614561364,4535,124
151,-0.011551136151,4536,124
152,-0.0115407053381,4537,124
153,-0.011530152522,4538,124
154,-0.0115194683895,4539,124
155,-0.0115140741691,4540,124
156,-0.0114976642653,4541,124
157,-0.0114865219221,4542,124
158,-0.0114752044901,4543,124
159,-0.011469475925,4544,124
160,-0.0114578744397,4545,124
161,-0.0114400871098,4546,124
162,-0.0114340484142,4547,124
163,-0.0114155858755,4548,124
164,-0.0114029729739,4549,124
165,-0.0113965701312,4550,124
166,-0.0113835670054,4551,124
167,-0.0113702882081,4552,124
168,-0.0113567207009,4553,124
169,-0.0113428533077,4554,124
170,-0.0113358031958,4555,124
171,-0.0113141704351,4556,124
172,-0.011306793429,4557,124
173,-0.0112841436639,4558,124
174,-0.0112685970962,4559,124
175,-0.0112606855109,4560,124
176,-0.0112363807857,4561,124
177,-0.0112196886912,4562,124
178,-0.0112025924027,4563,124
179,-0.0111850816756,4564,124
180,-0.0111761679873,4565,124
181,-0.011158015579,4566,124
182,-0.0111394235864,4567,124
183,-0.0111299594864,4568,124
184,-0.0111008808017,4569,124
185,-0.0110809123144,4570,124
186,-0.0110604679212,4571,124
187,-0.0110395392403,4572,124
188,-0.0110181178898,4573,124
189,-0.0110072204843,4574,124
190,-0.0109850475565,4575,124
191,-0.0109623661265,4576,124
192,-0.0109273763373,4577,124
193,-0.0109033957124,4578,124
194,-0.0108788870275,4579,124
195,-0.010866433382,4580,124
196,-0.0108411256224,4581,124
197,-0.0108152795583,4582,124
198,-0.0107888933271,4583,124
199,-0.0107619650662,4584,124
200,-0.0107344929129,4585,124
201,-0.0107064750046,4586,124
202,-0.0106779141352,4587,124
203,-0.0106488075107,4588,124
204,-0.0106340507045,4589,124
205,-0.0106041301042,4590,124
206,-0.0105582373217,4591,124
207,-0.0105269700289,4592,124
208,-0.0104951709509,4593,124
