,amplitude,tstep,vfp
0,-0.0100159626454,4228,121
1,-0.0101331379265,4229,121
2,-0.0102097494528,4230,121
3,-0.0102851465344,4231,121
4,-0.010359316133,4232,121
5,-0.0103959394619,4233,121
6,-0.0104682575911,4234,121
7,-0.0105393324047,4235,121
8,-0.0105744032189,4236,121
9,-0.0106436070055,4237,121
10,-0.0107115590945,4238,121
11,-0.0107782557607,4239,121
12,-0.0108436988667,4240,121
13,-0.0109395077452,4241,121
14,-0.0110018141568,4242,121
15,-0.0110628698021,4243,121
16,-0.0110929291695,4244,121
17,-0.0111521165818,4245,121
18,-0.011238578707,4246,121
19,-0.0112946825102,4247,121
20,-0.0113222766668,4248,121
21,-0.0113765560091,4249,121
22,-0.0114032421261,4250,121
23,-0.0114557174966,4251,121
24,-0.0115070054308,4252,121
25,-0.0115817366168,4253,121
26,-0.011630111374,4254,121
27,-0.0116538712755,4255,121
28,-0.0117234587669,4256,121
29,-0.0117684649304,4257,121
30,-0.0117905577645,4258,121
31,-0.0118552288041,4259,121
32,-0.0118970274925,4260,121
33,-0.0119377970695,4261,121
34,-0.0119775598869,4262,121
35,-0.0119970692322,4263,121
36,-0.0120353624225,4264,121
37,-0.0120727047324,4265,121
38,-0.0121091213077,4266,121
39,-0.0121269896626,4267,121
40,-0.012179276906,4268,121
41,-0.0121962763369,4269,121
42,-0.0122460350394,4270,121
43,-0.0122782075778,4271,121
44,-0.012309611775,4272,121
45,-0.0123250354081,4273,121
46,-0.012370233424,4274,121
47,-0.0123995076865,4275,121
48,-0.0124281300232,4276,121
49,-0.012456132099,4277,121
50,-0.0124699082226,4278,121
51,-0.0124970339239,4279,121
52,-0.0125103900209,4280,121
53,-0.0125367073342,4281,121
54,-0.0125752575696,4282,121
55,-0.0126003846526,4283,121
56,-0.0126250898466,4284,121
57,-0.012649403885,4285,121
58,-0.012673355639,4286,121
59,-0.0126969786361,4287,121
60,-0.01272030361,4288,121
61,-0.0127318650484,4289,121
62,-0.0127661814913,4290,121
63,-0.0127887940034,4291,121
64,-0.0128000313416,4292,121
65,-0.0128223886713,4293,121
66,-0.0128446146846,4294,121
67,-0.0128667345271,4295,121
68,-0.0128887789324,4296,121
69,-0.0129107777029,4297,121
70,-0.0129327541217,4298,121
71,-0.0129437427968,4299,121
72,-0.0129767535254,4300,121
73,-0.0129988286644,4301,121
74,-0.0130209866911,4302,121
75,-0.0130321057513,4303,121
76,-0.013054437004,4304,121
77,-0.0130882076919,4305,121
78,-0.0131109375507,4306,121
79,-0.0131338629872,4307,121
80,-0.0131454057992,4308,121
81,-0.0131570054218,4309,121
82,-0.0131921693683,4310,121
83,-0.0132040213794,4311,121
84,-0.0132279274985,4312,121
85,-0.013264332898,4313,121
86,-0.0132889896631,4314,121
87,-0.0133139695972,4315,121
88,-0.0133392857388,4316,121
89,-0.0133649492636,4317,121
90,-0.013390972279,4318,121
91,-0.0134173622355,4319,121
92,-0.0134441265836,4320,121
93,-0.0134712718427,4321,121
94,-0.0134849892929,4322,121
95,-0.0135127156973,4323,121
96,-0.0135408360511,4324,121
97,-0.0135693484917,4325,121
98,-0.0135982567444,4326,121
99,-0.0136275589466,4327,121
100,-0.0136572541669,4328,121
101,-0.0136722493917,4329,121
102,-0.0137025266886,4330,121
103,-0.0137486625463,4331,121
104,-0.0137642277405,4332,121
105,-0.0138114737347,4333,121
106,-0.0138434162363,4334,121
107,-0.0138757033274,4335,121
108,-0.0138919716701,4336,121
109,-0.0139412581921,4337,121
110,-0.0139744961634,4338,121
111,-0.0139912255108,4339,121
112,-0.0140248900279,4340,121
113,-0.0140588153154,4341,121
114,-0.0140758706257,4342,121
115,-0.0141273709014,4343,121
116,-0.0141619564965,4344,121
117,-0.0141967209056,4345,121
118,-0.0142316352576,4346,121
119,-0.014249141328,4347,121
120,-0.0143018206581,4348,121
121,-0.0143370386213,4349,121
122,-0.0143546657637,4350,121
123,-0.0144075760618,4351,121
124,-0.0144428387284,4352,121
125,-0.0144604546949,4353,121
126,-0.0144956344739,4354,121
127,-0.0145131926984,4355,121
128,-0.0145656755194,4356,121
129,-0.0145830949768,4357,121
130,-0.0146350618452,4358,121
131,-0.0146522736177,4359,121
132,-0.0147035093978,4360,121
133,-0.0147372856736,4361,121
134,-0.0147707145661,4362,121
135,-0.0147872874513,4363,121
136,-0.0148363746703,4364,121
137,-0.0148525116965,4365,121
138,-0.01488441322,4366,121
139,-0.0149157922715,4367,121
140,-0.0149466022849,4368,121
141,-0.014976805076,4369,121
142,-0.0149916661903,4370,121
143,-0.0150352232158,4371,121
144,-0.0150633528829,4372,121
145,-0.0150907095522,4373,121
146,-0.0151172503829,4374,121
147,-0.0151429325342,4375,121
148,-0.0151677168906,4376,121
149,-0.0151797570288,4377,121
150,-0.0152144161984,4378,121
151,-0.0152254635468,4379,121
152,-0.0152467731386,4380,121
153,-0.0152766881511,4381,121
154,-0.0152860945091,4382,121
155,-0.0153125440702,4383,121
156,-0.0153207536787,4384,121
157,-0.0153362378478,4385,121
158,-0.0153504414484,4386,121
159,-0.0153633262962,4387,121
160,-0.0153748532757,4388,121
161,-0.0153849888593,4389,121
162,-0.0153936976567,4390,121
163,-0.0153975058347,4391,121
164,-0.0154066951945,4392,121
165,-0.0154090002179,4393,121
166,-0.0154124498367,4394,121
167,-0.0154146617278,4395,121
168,-0.0154141196981,4396,121
169,-0.015413233079,4397,121
170,-0.0154080744833,4398,121
171,-0.0154055105522,4399,121
172,-0.0154025200754,4400,121
173,-0.0153909502551,4401,121
174,-0.0153810475022,4402,121
175,-0.0153754334897,4403,121
176,-0.0153558980674,4404,121
177,-0.0153406150639,4405,121
178,-0.0153322890401,4406,121
179,-0.015314258635,4407,121
180,-0.0152837419882,4408,121
181,-0.0152610670775,4409,121
182,-0.0152365174145,4410,121
183,-0.0152235366404,4411,121
184,-0.015181761235,4412,121
185,-0.0151668898761,4413,121
186,-0.0151357259601,4414,121
187,-0.0151026686653,4415,121
188,-0.0150854270905,4416,121
189,-0.0150495246053,4417,121
190,-0.0149921262637,4418,121
191,-0.0149720497429,4419,121
192,-0.0149304866791,4420,121
193,-0.0148646365851,4421,121
194,-0.0148184131831,4422,121
195,-0.0147946085781,4423,121
196,-0.0147204510868,4424,121
197,-0.0146687468514,4425,121
198,-0.0146152470261,4426,121
199,-0.0145599748939,4427,121
200,-0.014502953738,4428,121
201,-0.0144737940282,4429,121
202,-0.0144141921774,4430,121
203,-0.0143837574869,4431,121
204,-0.0143216364086,4432,121
205,-0.0142578715459,4433,121
206,-0.0141924927011,4434,121
207,-0.0141255352646,4435,121
208,-0.0140222115442,4436,121
209,-0.0139870177954,4437,121
210,-0.0138792460784,4438,121
211,-0.0138426087797,4439,121
212,-0.0137306293473,4440,121
213,-0.0136543046683,4441,121
214,-0.0135766956955,4442,121
215,-0.0135374227539,4443,121
216,-0.0134579706937,4444,121
217,-0.0134178036824,4445,121
218,-0.01329560671,4446,121
219,-0.0132127935067,4447,121
220,-0.0131289605051,4448,121
221,-0.0130441607907,4449,121
222,-0.0129584446549,4450,121
223,-0.0129152610898,4451,121
224,-0.0127844857052,4452,121
225,-0.0126963555813,4453,121
226,-0.0126075297594,4454,121
227,-0.0125628747046,4455,121
228,-0.0124280303717,4456,121
229,-0.0123374713585,4457,121
230,-0.0122464541346,4458,121
231,-0.0121550355107,4459,121
232,-0.0121091930196,4460,121
233,-0.0120632732287,4461,121
234,-0.0119251264259,4462,121
235,-0.0118789719418,4463,121
236,-0.0117402989417,4464,121
237,-0.0116477534175,4465,121
238,-0.01155519858,4466,121
239,-0.0114626986906,4467,121
240,-0.0113703124225,4468,121
241,-0.0112781012431,4469,121
242,-0.0112320780754,4470,121
243,-0.0110944379121,4471,121
244,-0.0110487248749,4472,121
245,-0.0109121873975,4473,121
246,-0.010821740143,4474,121
247,-0.0107767097652,4475,121
248,-0.0106870764866,4476,121
249,-0.0106424856931,4477,121
250,-0.0105097042397,4478,121
251,-0.0104657961056,4479,121
252,-0.0103785507381,4480,121
253,-0.0102492123842,4481,121
254,-0.0101640801877,4482,121
255,-0.010079883039,4483,121
256,-0.0100381504744,4484,121
257,0.0100239338353,5079,121
258,0.010039604269,5080,121
259,0.0100703723729,5081,121
260,0.0101003777236,5082,121
261,0.0101150982082,5083,121
262,0.0101581420749,5084,121
263,0.0101859206334,5085,121
264,0.0101995356381,5086,121
265,0.010239305906,5087,121
266,0.010264929384,5088,121
267,0.010277477093,5089,121
268,0.0103140724823,5090,121
269,0.0103259254247,5091,121
270,0.0103491134942,5092,121
271,0.0103826196864,5093,121
272,0.0104041127488,5094,121
273,0.0104146087542,5095,121
274,0.0104350969195,5096,121
275,0.0104549191892,5097,121
276,0.0104645825922,5098,121
277,0.0104834130034,5099,121
278,0.0105015849695,5100,121
279,0.0105276135728,5101,121
280,0.0105441482738,5102,121
281,0.010560028255,5103,121
282,0.0105752553791,5104,121
283,0.0105898268521,5105,121
284,0.0106037436053,5106,121
285,0.0106104565784,5107,121
286,0.0106296055019,5108,121
287,0.0106415469199,5109,121
288,0.0106472680345,5110,121
289,0.0106528233737,5111,121
290,0.0106684882194,5112,121
291,0.0106780929491,5113,121
292,0.0106870215386,5114,121
293,0.0106912311167,5115,121
294,0.0106991352513,5116,121
295,0.010709701106,5117,121
296,0.010715873912,5118,121
297,0.0107213454321,5119,121
298,0.0107261072844,5120,121
299,0.0107301529497,5121,121
300,0.0107334777713,5122,121
301,0.0107360742986,5123,121
302,0.0107379341498,5124,121
303,0.0107385870069,5125,121
304,0.0107390526682,5126,121
305,0.0107393227518,5127,121
306,0.0107390331104,5128,121
307,0.0107370121405,5129,121
308,0.0107346987352,5130,121
309,0.0107332486659,5131,121
310,0.0107277119532,5132,121
311,0.010723028332,5133,121
312,0.0107175372541,5134,121
313,0.0107144890353,5135,121
314,0.0107041178271,5136,121
315,0.0107002509758,5137,121
316,0.010691890493,5138,121
317,0.0106777902693,5139,121
318,0.0106726689264,5140,121
319,0.0106617938727,5141,121
320,0.0106560392305,5142,121
321,0.0106374947354,5143,121
322,0.010624059476,5144,121
323,0.0106097655371,5145,121
324,0.0105946054682,5146,121
325,0.0105785802007,5147,121
326,0.0105616850778,5148,121
327,0.0105439210311,5149,121
328,0.0105252861977,5150,121
329,0.0105057824403,5151,121
330,0.0104854078963,5152,121
331,0.0104748969898,5153,121
332,0.0104532204568,5154,121
333,0.0104306805879,5155,121
334,0.0104190865532,5156,121
335,0.0103952558711,5157,121
336,0.0103579051793,5158,121
337,0.0103319445625,5159,121
338,0.0103051448241,5160,121
339,0.010277508758,5161,121
340,0.0102490484715,5162,121
341,0.0102345114574,5163,121
342,0.0101896822453,5164,121
343,0.01015880052,5165,121
344,0.0101271299645,5166,121
345,0.01009468548,5167,121
346,0.0100614801049,5168,121
347,0.0100445970893,5169,121
348,0.0100102759898,5170,121
349,0.0100176213309,3486,121
350,0.0100268013775,3487,121
351,0.0100447563455,3488,121
352,0.0100621627644,3489,121
353,0.0100790103897,3490,121
354,0.010095294565,3491,121
355,0.0101110041142,3492,121
356,0.0101186418906,3493,121
357,0.0101334806532,3494,121
358,0.0101546328515,3495,121
359,0.0101679870859,3496,121
360,0.0101807350293,3497,121
361,0.010186880827,3498,121
362,0.010204394348,3499,121
363,0.0102152936161,3500,121
364,0.0102205071598,3501,121
365,0.0102351997048,3502,121
366,0.0102442000061,3503,121
367,0.0102525558323,3504,121
368,0.0102602643892,3505,121
369,0.0102638751268,3506,121
370,0.0102706057951,3507,121
371,0.0102766798809,3508,121
372,0.0102794701234,3509,121
373,0.0102868461981,3510,121
374,0.0102909319103,3511,121
375,0.0102943470702,3512,121
376,0.010295801796,3513,121
377,0.0102991592139,3514,121
378,0.0103005524725,3515,121
379,0.0103012686595,3516,121
380,0.0103013049811,3517,121
381,0.0103010684252,3518,121
382,0.0103000849485,3519,121
383,0.0102973310277,3520,121
384,0.0102946413681,3521,121
385,0.0102930413559,3522,121
386,0.0102893300354,3523,121
387,0.0102849360555,3524,121
388,0.0102824838832,3525,121
389,0.0102741038427,3526,121
390,0.0102676674724,3527,121
391,0.0102605540305,3528,121
392,0.0102527607232,3529,121
393,0.0102442931384,3530,121
394,0.0102398069575,3531,121
395,0.0102253416553,3532,121
396,0.0102201849222,3533,121
397,0.0102037172765,3534,121
398,0.0101919090375,3535,121
399,0.0101794432849,3536,121
400,0.0101729631424,3537,121
401,0.0101663200185,3538,121
402,0.0101525448263,3539,121
403,0.0101306671277,3540,121
404,0.0101230526343,3541,121
405,0.0101073449478,3542,121
406,0.0100825931877,3543,121
407,0.0100740268826,3544,121
408,0.0100473947823,3545,121
409,0.010028867051,3546,121
410,0.0100097265095,3547,121
0,-0.0100047085434,4232,122
1,-0.0100417276844,4233,122
2,-0.0100777447224,4234,122
3,-0.0100953821093,4235,122
4,-0.0101468292996,4236,122
5,-0.0101634971797,4237,122
6,-0.0101961288601,4238,122
7,-0.0102278329432,4239,122
8,-0.0102736856788,4240,122
9,-0.0102885263041,4241,122
10,-0.0103317499161,4242,122
11,-0.0103595089167,4243,122
12,-0.0103864455596,4244,122
13,-0.010412581265,4245,122
14,-0.0104253552854,4246,122
15,-0.0104625318199,4247,122
16,-0.0104745533317,4248,122
17,-0.010498049669,4249,122
18,-0.0105208428577,4250,122
19,-0.0105429533869,4251,122
20,-0.0105537595227,4252,122
21,-0.0105852168053,4253,122
22,-0.0105953915045,4254,122
23,-0.0106250215322,4255,122
24,-0.0106440614909,4256,122
25,-0.0106625575572,4257,122
26,-0.0106805283576,4258,122
27,-0.0106980036944,4259,122
28,-0.0107150040567,4260,122
29,-0.0107233338058,4261,122
30,-0.0107396645471,4262,122
31,-0.0107555808499,4263,122
32,-0.0107711059973,4264,122
33,-0.0107787288725,4265,122
34,-0.0107937082648,4266,122
35,-0.0108155598864,4267,122
36,-0.0108297513798,4268,122
37,-0.0108436672017,4269,122
38,-0.0108573297039,4270,122
39,-0.010864074342,4271,122
40,-0.0108839925379,4272,122
41,-0.0108970347792,4273,122
42,-0.0109034944326,4274,122
43,-0.0109226619825,4275,122
44,-0.0109352888539,4276,122
45,-0.0109415641055,4277,122
46,-0.0109540550038,4278,122
47,-0.010960274376,4279,122
48,-0.0109788645059,4280,122
49,-0.0109912240878,4281,122
50,-0.0110035855323,4282,122
51,-0.0110097704455,4283,122
52,-0.0110283792019,4284,122
53,-0.0110408496112,4285,122
54,-0.0110471136868,4286,122
55,-0.0110660390928,4287,122
56,-0.0110787907615,4288,122
57,-0.0110916718841,4289,122
58,-0.0111046992242,4290,122
59,-0.0111178876832,4291,122
60,-0.0111312540248,4292,122
61,-0.0111380089074,4293,122
62,-0.0111448140815,4294,122
63,-0.0111655490473,4295,122
64,-0.0111796557903,4296,122
65,-0.0111940065399,4297,122
66,-0.0112086143345,4298,122
67,-0.0112160174176,4299,122
68,-0.0112386429682,4300,122
69,-0.0112540861592,4301,122
70,-0.0112698310986,4302,122
71,-0.0112858861685,4303,122
72,-0.0112940333784,4304,122
73,-0.0113189667463,4305,122
74,-0.0113360062242,4306,122
75,-0.0113446526229,4307,122
76,-0.0113622080535,4308,122
77,-0.0113801164553,4309,122
78,-0.0113983806223,4310,122
79,-0.0114170042798,4311,122
80,-0.0114359948784,4312,122
81,-0.0114553524181,4313,122
82,-0.0114750806242,4314,122
83,-0.011495180428,4315,122
84,-0.0115156546235,4316,122
85,-0.0115260304883,4317,122
86,-0.0115577178076,4318,122
87,-0.0115793086588,4319,122
88,-0.0116012655199,4320,122
89,-0.0116123808548,4321,122
90,-0.0116462726146,4322,122
91,-0.0116577493027,4323,122
92,-0.0116693153977,4324,122
93,-0.0117045370862,4325,122
94,-0.0117164514959,4326,122
95,-0.0117526967078,4327,122
96,-0.0117772752419,4328,122
97,-0.0118021732196,4329,122
98,-0.0118273813277,4330,122
99,-0.0118400985375,4331,122
100,-0.011878692545,4332,122
101,-0.0119047742337,4333,122
102,-0.0119311260059,4334,122
103,-0.0119577329606,4335,122
104,-0.0119711281732,4336,122
105,-0.0119980955496,4337,122
106,-0.0120252864435,4338,122
107,-0.012052686885,4339,122
108,-0.0120664602146,4340,122
109,-0.0121080530807,4341,122
110,-0.0121359890327,4342,122
111,-0.012164070271,4343,122
112,-0.0121922809631,4344,122
113,-0.0122206034139,4345,122
114,-0.0122348023579,4346,122
115,-0.0122632607818,4347,122
116,-0.0123060708866,4348,122
117,-0.0123203638941,4349,122
118,-0.0123632773757,4350,122
119,-0.0123918894678,4351,122
120,-0.0124204838648,4352,122
121,-0.0124490400776,4353,122
122,-0.0124632967636,4354,122
123,-0.0124917570502,4355,122
124,-0.0125059541315,4356,122
125,-0.012534272857,4357,122
126,-0.012576517649,4358,122
127,-0.0126044983044,4359,122
128,-0.0126323048025,4360,122
129,-0.0126461358741,4361,122
130,-0.0126873152331,4362,122
131,-0.0127144791186,4363,122
132,-0.0127279665321,4364,122
133,-0.0127547383308,4365,122
134,-0.0127943484113,4366,122
135,-0.0128073962405,4367,122
136,-0.0128460377455,4368,122
137,-0.0128587419167,4369,122
138,-0.0128838689998,4370,122
139,-0.0129086077213,4371,122
140,-0.0129329347983,4372,122
141,-0.0129568316042,4373,122
142,-0.0129686137661,4374,122
143,-0.0130032571033,4375,122
144,-0.0130257494748,4376,122
145,-0.0130477333441,4377,122
146,-0.0130585292354,4378,122
147,-0.0130797177553,4379,122
148,-0.0131104635075,4380,122
149,-0.0131204258651,4381,122
150,-0.0131494244561,4382,122
151,-0.0131587889045,4383,122
152,-0.0131770474836,4384,122
153,-0.013194671832,4385,122
154,-0.0132116451859,4386,122
155,-0.0132198818028,4387,122
156,-0.0132435755804,4388,122
157,-0.0132511295378,4389,122
158,-0.0132657065988,4390,122
159,-0.0132862282917,4391,122
160,-0.0132989929989,4392,122
161,-0.0133050978184,4393,122
162,-0.0133167365566,4394,122
163,-0.0133327580988,4395,122
164,-0.013342465274,4396,122
165,-0.013351383619,4397,122
166,-0.0133594991639,4398,122
167,-0.0133632561192,4399,122
168,-0.0133701534942,4400,122
169,-0.0133732929826,4401,122
170,-0.0133814727888,4402,122
171,-0.0133837824687,4403,122
172,-0.0133894430473,4404,122
173,-0.01339215599,4405,122
174,-0.0133931906894,4406,122
175,-0.0133950030431,4407,122
176,-0.0133951287717,4408,122
177,-0.0133943837136,4409,122
178,-0.0133927641436,4410,122
179,-0.0133902672678,4411,122
180,-0.0133868893608,4412,122
181,-0.0133826276287,4413,122
182,-0.0133801680058,4414,122
183,-0.0133774848655,4415,122
184,-0.0133681083098,4416,122
185,-0.0133607499301,4417,122
186,-0.013352506794,4418,122
187,-0.0133480532095,4419,122
188,-0.0133333634585,4420,122
189,-0.0133280260488,4421,122
190,-0.0133106922731,4422,122
191,-0.0132980365306,4423,122
192,-0.0132913812995,4424,122
193,-0.0132701061666,4425,122
194,-0.0132548362017,4426,122
195,-0.0132468780503,4427,122
196,-0.0132217118517,4428,122
197,-0.0132128968835,4429,122
198,-0.0131946280599,4430,122
199,-0.0131851751357,4431,122
200,-0.0131555590779,4432,122
201,-0.0131452698261,4433,122
202,-0.0131131624803,4434,122
203,-0.0130907343701,4435,122
204,-0.0130674969405,4436,122
205,-0.0130555750802,4437,122
206,-0.0130186239257,4438,122
207,-0.0129930051044,4439,122
208,-0.0129666123539,4440,122
209,-0.0129394540563,4441,122
210,-0.0129115423188,4442,122
211,-0.0128828836605,4443,122
212,-0.0128682786599,4444,122
213,-0.01285349112,4445,122
214,-0.0128233749419,4446,122
215,-0.0127925481647,4447,122
216,-0.0127449957654,4448,122
217,-0.0127124385908,4449,122
218,-0.0126792099327,4450,122
219,-0.0126453256235,4451,122
220,-0.0126107949764,4452,122
221,-0.0125756356865,4453,122
222,-0.0125398570672,4454,122
223,-0.0125217381865,4455,122
224,-0.0124664986506,4456,122
225,-0.0124289486557,4457,122
226,-0.0123908352107,4458,122
227,-0.0123521760106,4459,122
228,-0.0123326461762,4460,122
229,-0.0122931944206,4461,122
230,-0.0122532332316,4462,122
231,-0.0122330663726,4463,122
232,-0.0121718430892,4464,122
233,-0.0121304458007,4465,122
234,-0.0120886014774,4466,122
235,-0.0120675163344,4467,122
236,-0.012003636919,4468,122
237,-0.0119605474174,4469,122
238,-0.0119170760736,4470,122
239,-0.0118732396513,4471,122
240,-0.0118511905894,4472,122
241,-0.0117845414206,4473,122
242,-0.0117621645331,4474,122
243,-0.0117171835154,4475,122
244,-0.0116719137877,4476,122
245,-0.0116263721138,4477,122
246,-0.0115805761889,4478,122
247,-0.0115575874224,4479,122
248,-0.0114882895723,4480,122
249,-0.0114418333396,4481,122
250,-0.0113951927051,4482,122
251,-0.0113483853638,4483,122
252,-0.0113014280796,4484,122
253,-0.0112543394789,4485,122
254,-0.0112071353942,4486,122
255,-0.0111834965646,4487,122
256,-0.0111124543473,4488,122
257,-0.0110650137067,4489,122
258,-0.0110412752256,4490,122
259,-0.0110175283626,4491,122
260,-0.0109462551773,4492,122
261,-0.0109224934131,4493,122
262,-0.010874979198,4494,122
263,-0.0108037609607,4495,122
264,-0.0107563408092,4496,122
265,-0.0107089923695,4497,122
266,-0.0106853488833,4498,122
267,-0.0106145646423,4499,122
268,-0.0105675188825,4500,122
