,amplitude,tstep,vfp
0,-0.0100347734988,4639,121
1,-0.0100766327232,4640,121
2,-0.0100975912064,4641,121
3,-0.0101395687088,4642,121
4,-0.0101816300303,4643,121
5,-0.0102237807587,4644,121
6,-0.0102660218254,4645,121
7,-0.0103083569556,4646,121
8,-0.0103507880121,4647,121
9,-0.010372039862,4648,121
10,-0.0104359453544,4649,121
11,-0.0104786716402,4650,121
12,-0.0105000715703,4651,121
13,-0.010542947799,4652,121
14,-0.0105859227479,4653,121
15,-0.0106505649164,4654,121
16,-0.0106937792152,4655,121
17,-0.0107154184952,4656,121
18,-0.0107370819896,4657,121
19,-0.010802202858,4658,121
20,-0.0108457198367,4659,121
21,-0.010889316909,4660,121
22,-0.0109329856932,4661,121
23,-0.010976722464,4662,121
24,-0.0110205197707,4663,121
25,-0.0110424412414,4664,121
26,-0.0110863177106,4665,121
27,-0.0111302398145,4666,121
28,-0.0111961858347,4667,121
29,-0.0112401805818,4668,121
30,-0.0112841892987,4669,121
31,-0.011328201741,4670,121
32,-0.0113502070308,4671,121
33,-0.0113722095266,4672,121
34,-0.0114381890744,4673,121
35,-0.011482136324,4674,121
36,-0.0115040931851,4675,121
37,-0.0115698827431,4676,121
38,-0.0116136595607,4677,121
39,-0.0116573534906,4678,121
40,-0.0116791650653,4679,121
41,-0.0117444396019,4680,121
42,-0.0117878057063,4681,121
43,-0.0118310330436,4682,121
44,-0.0118525894359,4683,121
45,-0.0119170164689,4684,121
46,-0.0119597408921,4685,121
47,-0.0119810309261,4686,121
48,-0.0120234508067,4687,121
49,-0.0120656490326,4688,121
50,-0.0120866596699,4689,121
51,-0.0121284937486,4690,121
52,-0.0121907424182,4691,121
53,-0.0122113516554,4692,121
54,-0.0122727211565,4693,121
55,-0.0123132318258,4694,121
56,-0.0123534025624,4695,121
57,-0.0123932119459,4696,121
58,-0.0124326469377,4697,121
59,-0.0124716861174,4698,121
60,-0.0125103136525,4699,121
61,-0.0125485090539,4700,121
62,-0.0125862555578,4701,121
63,-0.0126049546525,4702,121
64,-0.0126419961452,4703,121
65,-0.0126785449684,4704,121
66,-0.0127145797014,4705,121
67,-0.0127500863746,4706,121
68,-0.0127850463614,4707,121
69,-0.0128194382414,4708,121
70,-0.0128532508388,4709,121
71,-0.0128864618018,4710,121
72,-0.0129190562293,4711,121
73,-0.0129510154948,4712,121
74,-0.0129823237658,4713,121
75,-0.0129977297038,4714,121
76,-0.0130429212004,4715,121
77,-0.0130721768364,4716,121
78,-0.0130865378305,4717,121
79,-0.0131147140637,4718,121
80,-0.0131421489641,4719,121
81,-0.0131688266993,4720,121
82,-0.0131947379559,4721,121
83,-0.013219862245,4722,121
84,-0.013244189322,4723,121
85,-0.0132677042857,4724,121
86,-0.0132791521028,4725,121
87,-0.0133122438565,4726,121
88,-0.0133228525519,4727,121
89,-0.0133533831686,4728,121
90,-0.013372647576,4729,121
91,-0.0133910262957,4730,121
92,-0.0134085109457,4731,121
93,-0.0134169142693,4732,121
94,-0.0134330373257,4733,121
95,-0.0134407551959,4734,121
96,-0.0134625220671,4735,121
97,-0.0134758641943,4736,121
98,-0.0134821841493,4737,121
99,-0.0134997172281,4738,121
100,-0.0135050863028,4739,121
101,-0.013519753702,4740,121
102,-0.0135241625831,4741,121
103,-0.0135359335691,4742,121
104,-0.0135425664485,4743,121
105,-0.0135482251644,4744,121
106,-0.0135506885126,4745,121
107,-0.0135566126555,4746,121
108,-0.013558098115,4747,121
109,-0.0135593386367,4748,121
110,-0.0135610895231,4749,121
111,-0.0135618811473,4750,121
112,-0.0135616585612,4751,121
113,-0.0135595295578,4752,121
114,-0.0135569004342,4753,121
115,-0.0135533073917,4754,121
116,-0.0135511513799,4755,121
117,-0.0135432519019,4756,121
118,-0.0135367996991,4757,121
119,-0.0135294077918,4758,121
120,-0.0135210873559,4759,121
121,-0.013516577892,4760,121
122,-0.0135068753734,4761,121
123,-0.0134962657467,4762,121
124,-0.0134847573936,4763,121
125,-0.0134723642841,4764,121
126,-0.0134658375755,4765,121
127,-0.0134449657053,4766,121
128,-0.013429986313,4767,121
129,-0.0134141743183,4768,121
130,-0.0134059600532,4769,121
131,-0.0133889261633,4770,121
132,-0.0133710950613,4771,121
133,-0.0133428927511,4772,121
134,-0.0133231468499,4773,121
135,-0.0133026652038,4774,121
136,-0.0132921542972,4775,121
137,-0.013259571977,4776,121
138,-0.0132483690977,4777,121
139,-0.0132369976491,4778,121
140,-0.0132137658074,4779,121
141,-0.0131898997352,4780,121
142,-0.0131529532373,4781,121
143,-0.0131275905296,4782,121
144,-0.0131016690284,4783,121
145,-0.0130885047838,4784,121
146,-0.0130482399836,4785,121
147,-0.0130207818002,4786,121
148,-0.0129928570241,4787,121
149,-0.0129644935951,4788,121
150,-0.0129357157275,4789,121
151,-0.0129065485671,4790,121
152,-0.0128770172596,4791,121
153,-0.0128621244803,4792,121
154,-0.0128320958465,4793,121
155,-0.0128017682582,4794,121
156,-0.0127711677924,4795,121
157,-0.0127557730302,4796,121
158,-0.0127092534676,4797,121
159,-0.0126779936254,4798,121
160,-0.0126465670764,4799,121
161,-0.0126149989665,4800,121
162,-0.0125833200291,4801,121
163,-0.0125515535474,4802,121
164,-0.0125356456265,4803,121
165,-0.0124878678471,4804,121
166,-0.0124559998512,4805,121
167,-0.0124241514131,4806,121
168,-0.0123923476785,4807,121
169,-0.0123764723539,4808,121
170,-0.0123606165871,4809,121
171,-0.0123289814219,4810,121
172,-0.012281762436,4811,121
173,-0.0122504783794,4812,121
174,-0.012219376862,4813,121
175,-0.0122039020061,4814,121
176,-0.0121578210965,4815,121
177,-0.0121425855905,4816,121
178,-0.0121123129502,4817,121
179,-0.0120674530044,4818,121
180,-0.0120379440486,4819,121
181,-0.0120087768883,4820,121
182,-0.0119799720123,4821,121
183,-0.011951552704,4822,121
184,-0.0119374925271,4823,121
185,-0.0119096841663,4824,121
186,-0.0118823042139,4825,121
187,-0.0118553750217,4826,121
188,-0.0118289114907,4827,121
189,-0.0118029303849,4828,121
190,-0.0117901256308,4829,121
191,-0.0117524741217,4830,121
192,-0.0117401862517,4831,121
193,-0.0117041263729,4832,121
194,-0.0116807734594,4833,121
195,-0.0116579867899,4834,121
196,-0.0116357747465,4835,121
197,-0.0116141494364,4836,121
198,-0.0116035593674,4837,121
199,-0.0115828309208,4838,121
200,-0.0115627096966,4839,121
201,-0.0115528786555,4840,121
202,-0.0115243140608,4841,121
203,-0.0115060536191,4842,121
204,-0.0114884218201,4843,121
205,-0.0114798452705,4844,121
206,-0.0114550674334,4845,121
207,-0.011439345777,4846,121
208,-0.0114317256957,4847,121
209,-0.0114098256454,4848,121
210,-0.01140284352,4849,121
211,-0.0113893607631,4850,121
212,-0.0113703301176,4851,121
213,-0.0113584324718,4852,121
214,-0.0113527197391,4853,121
215,-0.0113471634686,4854,121
216,-0.0113314250484,4855,121
217,-0.0113217011094,4856,121
218,-0.0113125825301,4857,121
219,-0.0113040609285,4858,121
220,-0.0113000236452,4859,121
221,-0.011288780719,4860,121
222,-0.011282001622,4861,121
223,-0.0112757803872,4862,121
224,-0.0112701095641,4863,121
225,-0.0112649723887,4864,121
226,-0.0112603576854,4865,121
227,-0.0112562533468,4866,121
228,-0.0112543869764,4867,121
229,-0.0112510183826,4868,121
230,-0.011248123832,4869,121
231,-0.0112456865609,4870,121
232,-0.0112436916679,4871,121
233,-0.0112421214581,4872,121
234,-0.0112409582362,4873,121
235,-0.0112405261025,4874,121
236,-0.011239788495,4875,121
237,-0.0112397437915,4876,121
238,-0.0112400352955,4877,121
239,-0.0112406443805,4878,121
240,-0.01124155242,4879,121
241,-0.0112427389249,4880,121
242,-0.0112441843376,4881,121
243,-0.0112458700314,4882,121
244,-0.0112467966974,4883,121
245,-0.0112477764487,4884,121
246,-0.0112498812377,4885,121
247,-0.0112533690408,4886,121
248,-0.0112558854744,4887,121
249,-0.0112585322931,4888,121
250,-0.0112612852827,4889,121
251,-0.0112626990303,4890,121
252,-0.0112670445815,4891,121
253,-0.0112700052559,4892,121
254,-0.0112729975954,4893,121
255,-0.0112744988874,4894,121
256,-0.01127750054,4895,121
257,-0.0112804826349,4896,121
258,-0.0112848794088,4897,121
259,-0.0112863164395,4898,121
260,-0.0112891346216,4899,121
261,-0.0112918587402,4900,121
262,-0.0112944738939,4901,121
263,-0.0112969651818,4902,121
264,-0.0112993111834,4903,121
265,-0.0113014988601,4904,121
266,-0.0113025279716,4905,121
267,-0.0113053377718,4906,121
268,-0.0113061740994,4907,121
269,-0.0113083608449,4908,121
270,-0.0113089764491,4909,121
271,-0.0113104609773,4910,121
272,-0.0113111305982,4911,121
273,-0.0113115338609,4912,121
274,-0.0113116316497,4913,121
275,-0.0113116577268,4914,121
276,-0.0113112991676,4915,121
277,-0.011310682632,4916,121
278,-0.0113097550347,4917,121
279,-0.0113091729581,4918,121
280,-0.0113069359213,4919,121
281,-0.0113050304353,4920,121
282,-0.0113027868792,4921,121
283,-0.0113002015278,4922,121
284,-0.0112987793982,4923,121
285,-0.0112939858809,4924,121
286,-0.0112903499976,4925,121
287,-0.0112883998081,4926,121
288,-0.0112820146605,4927,121
289,-0.0112773124129,4928,121
290,-0.0112748285756,4929,121
291,-0.0112722553313,4930,121
292,-0.0112640075386,4931,121
293,-0.0112580694258,4932,121
294,-0.0112517829984,4933,121
295,-0.0112451538444,4934,121
296,-0.0112381847575,4935,121
297,-0.0112308831885,4936,121
298,-0.0112232528627,4937,121
299,-0.0112153021619,4938,121
300,-0.0112070357427,4939,121
301,-0.0111984638497,4940,121
302,-0.0111895948648,4941,121
303,-0.0111804381013,4942,121
304,-0.0111757535487,4943,121
305,-0.011166183278,4944,121
306,-0.0111563494429,4945,121
307,-0.0111462622881,4946,121
308,-0.0111359357834,4947,121
309,-0.0111253829673,4948,121
310,-0.0111146140844,4949,121
311,-0.0111036431044,4950,121
312,-0.011092483066,4951,121
313,-0.0110811507329,4952,121
314,-0.011069657281,4953,121
315,-0.0110580185428,4954,121
316,-0.0110462484881,4955,121
317,-0.0110343648121,4956,121
318,-0.0110223805532,4957,121
319,-0.0110103143379,4958,121
320,-0.0110042542219,4959,121
321,-0.0109981792048,4960,121
322,-0.0109798843041,4961,121
323,-0.0109676532447,4962,121
324,-0.0109554100782,4963,121
325,-0.0109492903575,4964,121
326,-0.0109309600666,4965,121
327,-0.0109187867492,4966,121
328,-0.0109127191827,4967,121
329,-0.010894623585,4968,121
330,-0.0108826672658,4969,121
331,-0.0108767282218,4970,121
332,-0.0108590889722,4971,121
333,-0.0108474977314,4972,121
334,-0.0108417589217,4973,121
335,-0.0108304060996,4974,121
336,-0.0108192292973,4975,121
337,-0.0108082452789,4976,121
338,-0.0108028305694,4977,121
339,-0.010792164132,4978,121
340,-0.0107765970752,4979,121
341,-0.0107665313408,4980,121
342,-0.010756730102,4981,121
343,-0.0107472045347,4982,121
344,-0.0107425507158,4983,121
345,-0.0107290400192,4984,121
346,-0.0107204224914,4985,121
347,-0.0107121309265,4986,121
348,-0.0107041774318,4987,121
349,-0.0107003282756,4988,121
350,-0.0106928981841,4989,121
351,-0.0106858285144,4990,121
352,-0.0106791276485,4991,121
353,-0.0106728067622,4992,121
354,-0.0106668723747,4993,121
355,-0.0106613291427,4994,121
356,-0.0106561873108,4995,121
357,-0.0106514496729,4996,121
358,-0.0106471208856,4997,121
359,-0.0106432083994,4998,121
360,-0.0106414081529,4999,121
361,-0.0106381243095,5000,121
362,-0.0106339920312,5001,121
363,-0.0106317680329,5002,121
364,-0.010629969649,5003,121
365,-0.0106292311102,5004,121
366,-0.0106285987422,5005,121
367,-0.0106273405254,5006,121
368,-0.0106270322576,5007,121
369,-0.010627145879,5008,121
370,-0.0106273591518,5009,121
371,-0.0106281023473,5010,121
372,-0.0106299892068,5011,121
373,-0.0106317577884,5012,121
374,-0.0106339259073,5013,121
375,-0.0106351580471,5014,121
376,-0.010639439337,5015,121
377,-0.0106427697465,5016,121
378,-0.010646472685,5017,121
379,-0.0106505397707,5018,121
380,-0.0106527078897,5019,121
381,-0.0106573011726,5020,121
382,-0.0106622343883,5021,121
383,-0.0106674944982,5022,121
384,-0.0106702437624,5023,121
385,-0.0106789506972,5024,121
386,-0.0106851216406,5025,121
387,-0.010691572912,5026,121
388,-0.0106982886791,5027,121
389,-0.010705254972,5028,121
390,-0.0107124596834,5029,121
391,-0.0107198832557,5030,121
392,-0.0107236737385,5031,121
393,-0.0107353376225,5032,121
394,-0.0107393153012,5033,121
395,-0.0107473935932,5034,121
396,-0.0107556199655,5035,121
397,-0.0107639813796,5036,121
398,-0.0107724573463,5037,121
399,-0.0107810329646,5038,121
400,-0.0107896886766,5039,121
401,-0.0107984077185,5040,121
402,-0.0108071705326,5041,121
403,-0.0108159612864,5042,121
404,-0.0108203608543,5043,121
405,-0.0108335474506,5044,121
406,-0.0108423065394,5045,121
407,-0.0108510181308,5046,121
408,-0.0108596635982,5047,121
409,-0.010868223384,5048,121
410,-0.0108724655584,5049,121
411,-0.0108808623627,5050,121
412,-0.0108891278505,5051,121
413,-0.0108932033181,5052,121
414,-0.0109051857144,5053,121
415,-0.0109090898186,5054,121
416,-0.0109204938635,5055,121
417,-0.0109278215095,5056,121
418,-0.0109313959256,5057,121
419,-0.0109383519739,5058,121
420,-0.0109482798725,5059,121
421,-0.0109545346349,5060,121
422,-0.010960476473,5061,121
423,-0.0109660886228,5062,121
424,-0.0109687671065,5063,121
425,-0.0109738567844,5064,121
426,-0.0109785776585,5065,121
427,-0.0109829129651,5066,121
428,-0.0109849320725,5067,121
429,-0.0109903709963,5068,121
430,-0.0109934629872,5069,121
431,-0.0109961135313,5070,121
432,-0.0109983058646,5071,121
433,-0.0110000269488,5072,121
434,-0.0110012684017,5073,121
435,-0.0110020106658,5074,121
436,-0.0110022472218,5075,121
437,-0.0110019659624,5076,121
438,-0.0110011557117,5077,121
439,-0.0109998062253,5078,121
440,-0.0109979081899,5079,121
441,-0.0109967486933,5080,121
442,-0.0109940106049,5081,121
443,-0.0109906997532,5082,121
444,-0.0109888277948,5083,121
445,-0.0109823336825,5084,121
446,-0.0109772644937,5085,121
447,-0.0109715946019,5086,121
448,-0.010965321213,5087,121
449,-0.0109584350139,5088,121
450,-0.0109547618777,5089,121
451,-0.0109469508752,5090,121
452,-0.0109385214746,5091,121
453,-0.0109294671565,5092,121
454,-0.0109147103503,5093,121
455,-0.0109040858224,5094,121
456,-0.0108985370025,5095,121
457,-0.0108869653195,5096,121
458,-0.0108747631311,5097,121
459,-0.0108684245497,5098,121
460,-0.010848463513,5099,121
461,-0.0108414953575,5100,121
462,-0.0108270868659,5101,121
463,-0.0108120525256,5102,121
464,-0.0107883289456,5103,121
465,-0.0107717383653,5104,121
466,-0.0107632121071,5105,121
467,-0.0107367131859,5106,121
468,-0.0107275759801,5107,121
469,-0.0106992609799,5108,121
470,-0.0106796370819,5109,121
471,-0.0106696039438,5110,121
472,-0.0106490962207,5111,121
473,-0.0106386244297,5112,121
474,-0.0106063466519,5113,121
475,-0.0105841178447,5114,121
476,-0.0105613321066,5115,121
477,-0.0105497315526,5116,121
478,-0.010526121594,5117,121
479,-0.0104897031561,5118,121
480,-0.010477299802,5119,121
481,-0.0104521056637,5120,121
482,-0.0104133598506,5121,121
483,-0.0103869093582,5122,121
484,-0.0103599736467,5123,121
485,-0.010332563892,5124,121
486,-0.010318685323,5125,121
487,-0.0102905863896,5126,121
488,-0.0102763678879,5127,121
489,-0.0102330558002,5128,121
490,-0.0102036483586,5129,121
491,-0.0101738274097,5130,121
492,-0.0101587669924,5131,121
493,-0.0101283481345,5132,121
494,-0.0100820064545,5133,121
495,-0.0100506544113,5134,121
496,-0.0100189456716,5135,121
497,-0.0100029641762,5136,121
0,-0.0100202262402,4665,122
1,-0.0100592570379,4666,122
2,-0.010098378174,4667,122
3,-0.0101375803351,4668,122
4,-0.0101572116837,4669,122
5,-0.0102162091061,4670,122
6,-0.0102359065786,4671,122
7,-0.0102753415704,4672,122
8,-0.0103148259223,4673,122
9,-0.0103543512523,4674,122
10,-0.010393907316,4675,122
11,-0.0104136941954,4676,122
12,-0.0104532819241,4677,122
13,-0.0104928752407,4678,122
14,-0.010532467626,4679,122
15,-0.0105918301269,4680,122
16,-0.0106313731521,4681,122
17,-0.0106511302292,4682,122
18,-0.01071033068,4683,122
19,-0.010749722831,4684,122
20,-0.0107890451327,4685,122
21,-0.0108086755499,4686,122
22,-0.0108478674665,4687,122
23,-0.010886955075,4688,122
24,-0.0109259309247,4689,122
25,-0.0109647791833,4690,122
26,-0.0110034886748,4691,122
27,-0.011042047292,4692,122
28,-0.0110804419965,4693,122
29,-0.0111186597496,4694,122
30,-0.0111376978457,4695,122
31,-0.0111945113167,4696,122
32,-0.0112133435905,4697,122
33,-0.0112508395687,4698,122
34,-0.0112881008536,4699,122
35,-0.011343518272,4700,122
36,-0.0113801313564,4701,122
37,-0.0113983331248,4702,122
38,-0.0114345168695,4703,122
39,-0.0114524960518,4704,122
40,-0.0115059670061,4705,122
41,-0.0115236295387,4706,122
42,-0.0115761067718,4707,122
43,-0.0116106532514,4708,122
44,-0.0116448337212,4709,122
45,-0.0116786360741,4710,122
46,-0.0117120482028,4711,122
47,-0.0117450552061,4712,122
48,-0.0117776477709,4713,122
49,-0.01180981379,4714,122
50,-0.0118257328868,4715,122
51,-0.0118572367355,4716,122
52,-0.0118882833049,4717,122
53,-0.0119188642129,4718,122
54,-0.0119339767843,4719,122
55,-0.0119785824791,4720,122
56,-0.012007702142,4721,122
57,-0.0120363114402,4722,122
58,-0.0120644066483,4723,122
59,-0.0120782572776,4724,122
60,-0.0121055617929,4725,122
61,-0.0121455034241,4726,122
62,-0.0121585419402,4727,122
63,-0.012184205465,4728,122
64,-0.0122216409072,4729,122
65,-0.0122458841652,4730,122
66,-0.0122577892616,4731,122
67,-0.012281161733,4732,122
68,-0.0123039465398,4733,122
69,-0.012315117754,4734,122
70,-0.0123370112851,4735,122
71,-0.0123583041131,4736,122
72,-0.01238910947,4737,122
73,-0.0124088823795,4738,122
74,-0.0124280434102,4739,122
75,-0.0124373929575,4740,122
76,-0.0124645167962,4741,122
77,-0.0124732479453,4742,122
78,-0.0124902427197,4743,122
79,-0.0125145716593,4744,122
80,-0.0125300111249,4745,122
81,-0.0125448275357,4746,122
82,-0.0125520024449,4747,122
83,-0.0125658856705,4748,122
84,-0.0125791467726,4749,122
85,-0.0125917876139,4750,122
86,-0.0126038109884,4751,122
87,-0.0126095898449,4752,122
88,-0.0126260071993,4753,122
89,-0.0126311751083,4754,122
90,-0.0126457652077,4755,122
91,-0.0126547366381,4756,122
92,-0.012663106434,4757,122
93,-0.0126708792523,4758,122
94,-0.0126745430753,4759,122
95,-0.0126814320683,4760,122
96,-0.0126877380535,4761,122
97,-0.012693464756,4762,122
98,-0.0126986214891,4763,122
99,-0.0127032101154,4764,122
100,-0.0127072399482,4765,122
101,-0.0127107165754,4766,122
102,-0.0127122476697,4767,122
103,-0.0127149056643,4768,122
104,-0.0127178877592,4769,122
105,-0.0127186169848,4770,122
106,-0.0127200251445,4771,122
107,-0.0127203231677,4772,122
108,-0.0127201192081,4773,122
109,-0.0127194179222,4774,122
110,-0.0127182314172,4775,122
111,-0.0127165634185,4776,122
112,-0.0127155520022,4777,122
113,-0.0127144251019,4778,122
114,-0.0127103505656,4779,122
115,-0.0127070676535,4780,122
116,-0.0127052599564,4781,122
117,-0.0127013158053,4782,122
118,-0.0126969404519,4783,122
119,-0.0126921450719,4784,122
120,-0.0126841785386,4785,122
121,-0.0126783633605,4786,122
122,-0.0126721551642,4787,122
123,-0.0126689057797,4788,122
124,-0.0126585904509,4789,122
125,-0.0126549666747,4790,122
126,-0.0126474453136,4791,122
127,-0.0126395653933,4792,122
128,-0.0126313380897,4793,122
129,-0.0126227671281,4794,122
130,-0.0126138646156,4795,122
131,-0.0126046324149,4796,122
132,-0.0125950807706,4797,122
133,-0.0125852189958,4798,122
134,-0.0125801740214,4799,122
135,-0.0125645864755,4800,122
136,-0.0125538306311,4801,122
137,-0.012542789802,4802,122
138,-0.0125314695761,4803,122
139,-0.0125257093459,4804,122
140,-0.0125080272555,4805,122
141,-0.0125020025298,4806,122
142,-0.0124897621572,4807,122
143,-0.0124772712588,4808,122
144,-0.0124709326774,4809,122
145,-0.0124515620992,4810,122
146,-0.0124383568764,4811,122
147,-0.0124249244109,4812,122
148,-0.0124181229621,4813,122
149,-0.0123973973095,4814,122
150,-0.0123833129182,4815,122
151,-0.0123690227047,4816,122
152,-0.0123545294628,4817,122
153,-0.0123398387805,4818,122
154,-0.0123324217275,4819,122
155,-0.0123098846525,4820,122
156,-0.0123022794724,4821,122
157,-0.012279195711,4822,122
158,-0.0122714117169,4823,122
159,-0.0122557161376,4824,122
160,-0.0122398510575,4825,122
161,-0.0122318565845,4826,122
162,-0.0122076291591,4827,122
163,-0.0121912825853,4828,122
164,-0.0121747823432,4829,122
165,-0.0121581330895,4830,122
166,-0.0121413394809,4831,122
167,-0.0121328895912,4832,122
168,-0.0121158855036,4833,122
169,-0.0120901279151,4834,122
170,-0.0120727969334,4835,122
171,-0.0120553392917,4836,122
172,-0.0120465643704,4837,122
173,-0.0120289260522,4838,122
174,-0.0120111722499,4839,122
175,-0.0120022539049,4840,122
176,-0.0119843361899,4841,122
