,amplitude,tstep,vfp
0,-0.0100261624902,4889,121
1,-0.0100836278871,4890,121
2,-0.0101408734918,4891,121
3,-0.010197898373,4892,121
4,-0.0102547006682,4893,121
5,-0.0103112794459,4894,121
6,-0.0103676319122,4895,121
7,-0.0104237589985,4896,121
8,-0.0104796569794,4897,121
9,-0.0105075212196,4898,121
10,-0.0105630774051,4899,121
11,-0.0106184063479,4900,121
12,-0.010645981878,4901,121
13,-0.0107009634376,4902,121
14,-0.0107557140291,4903,121
15,-0.0108374077827,4904,121
16,-0.0108915800229,4905,121
17,-0.010918580927,4906,121
18,-0.0109992325306,4907,121
19,-0.0110527090728,4908,121
20,-0.0111059546471,4909,121
21,-0.0111589701846,4910,121
22,-0.0112117547542,4911,121
23,-0.0112643102184,4912,121
24,-0.0112905018032,4913,121
25,-0.0113427117467,4914,121
26,-0.0113946963102,4915,121
27,-0.0114464526996,4916,121
28,-0.011497983709,4917,121
29,-0.0115492893383,4918,121
30,-0.0116003705189,4919,121
31,-0.0116258291528,4920,121
32,-0.0116765787825,4921,121
33,-0.0117522897199,4922,121
34,-0.0117774186656,4923,121
35,-0.0118524776772,4924,121
36,-0.0119022512808,4925,121
37,-0.0119518116117,4926,121
38,-0.0120011623949,4927,121
39,-0.0120503045619,4928,121
40,-0.0120747992769,4929,121
41,-0.0121236331761,4930,121
42,-0.0121479732916,4931,121
43,-0.0122206956148,4932,121
44,-0.0122689316049,4933,121
45,-0.012316971086,4934,121
46,-0.0123648168519,4935,121
47,-0.0124124716967,4936,121
48,-0.0124362306669,4937,121
49,-0.012483606115,4938,121
50,-0.012554327026,4939,121
51,-0.0125778112561,4940,121
52,-0.0126479957253,4941,121
53,-0.0126945674419,4942,121
54,-0.0127409687266,4943,121
55,-0.0127641055733,4944,121
56,-0.0127872014418,4945,121
57,-0.0128562441096,4946,121
58,-0.012879177928,4947,121
59,-0.0129249254242,4948,121
60,-0.0129932537675,4949,121
61,-0.0130386184901,4950,121
62,-0.0130838332698,4951,121
63,-0.0131289027631,4952,121
64,-0.0131738288328,4953,121
65,-0.0132186161354,4954,121
66,-0.0132632665336,4955,121
67,-0.01330778189,4956,121
68,-0.0133521649987,4957,121
69,-0.0133964205161,4958,121
70,-0.013418501243,4959,121
71,-0.0134405512363,4960,121
72,-0.0135065186769,4961,121
73,-0.0135503476486,4962,121
74,-0.0135940620676,4963,121
75,-0.0136376628652,4964,121
76,-0.0136811528355,4965,121
77,-0.013724533841,4966,121
78,-0.0137461852282,4967,121
79,-0.0137894088402,4968,121
80,-0.0138540547341,4969,121
81,-0.0138970287517,4970,121
82,-0.0139184789732,4971,121
83,-0.0139826880768,4972,121
84,-0.0140040433034,4973,121
85,-0.0140466867015,4974,121
86,-0.0140892416239,4975,121
87,-0.0141317099333,4976,121
88,-0.0141740916297,4977,121
89,-0.0142163885757,4978,121
90,-0.0142586035654,4979,121
91,-0.0143007365987,4980,121
92,-0.0143427904695,4981,121
93,-0.0143847661093,4982,121
94,-0.0144266644493,4983,121
95,-0.0144684873521,4984,121
96,-0.0145102357492,4985,121
97,-0.0145310824737,4986,121
98,-0.0145935090259,4987,121
99,-0.0146142812446,4988,121
100,-0.0146557725966,4989,121
101,-0.0146971922368,4990,121
102,-0.0147178750485,4991,121
103,-0.0147798201069,4992,121
104,-0.0148210274056,4993,121
105,-0.014862164855,4994,121
106,-0.014882707037,4995,121
107,-0.0149442311376,4996,121
108,-0.0149851590395,4997,121
109,-0.0150260152295,4998,121
110,-0.0150464177132,4999,121
111,-0.0150871686637,5000,121
112,-0.0151481628418,5001,121
113,-0.0151887368411,5002,121
114,-0.0152292372659,5003,121
115,-0.0152494618669,5004,121
116,-0.0152898514643,5005,121
117,-0.0153301693499,5006,121
118,-0.0153704090044,5007,121
119,-0.0154105760157,5008,121
120,-0.0154306283221,5009,121
121,-0.0154706770554,5010,121
122,-0.0155306058004,5011,121
123,-0.0155704552308,5012,121
124,-0.0155903492123,5013,121
125,-0.015630075708,5014,121
126,-0.0156895089895,5015,121
127,-0.0157092753798,5016,121
128,-0.0157684497535,5017,121
129,-0.0158077850938,5018,121
130,-0.0158274210989,5019,121
131,-0.0158666241914,5020,121
132,-0.015905732289,5021,121
133,-0.0159447453916,5022,121
134,-0.0159836634994,5023,121
135,-0.0160224847496,5024,121
136,-0.0160418581218,5025,121
137,-0.0160998180509,5026,121
138,-0.0161190889776,5027,121
139,-0.0161767415702,5028,121
140,-0.0161959063262,5029,121
141,-0.0162532329559,5030,121
142,-0.0162722878158,5031,121
143,-0.0163292828947,5032,121
144,-0.0163671374321,5033,121
145,-0.0163860209286,5034,121
146,-0.0164048727602,5035,121
147,-0.0164612550288,5036,121
148,-0.0164986904711,5037,121
149,-0.016536006704,5038,121
150,-0.016573196277,5039,121
151,-0.0166102610528,5040,121
152,-0.0166471973062,5041,121
153,-0.016684005037,5042,121
154,-0.0167206767946,5043,121
155,-0.0167572200298,5044,121
156,-0.0167936272919,5045,121
157,-0.0168298967183,5046,121
158,-0.0168660283089,5047,121
159,-0.0169020220637,5048,121
160,-0.0169378761202,5049,121
161,-0.0169557463378,5050,121
162,-0.016973586753,5051,121
163,-0.0170268826187,5052,121
164,-0.0170622318983,5053,121
165,-0.0170798525214,5054,121
166,-0.0171324945986,5055,121
167,-0.0171499662101,5056,121
168,-0.0172021612525,5057,121
169,-0.0172367654741,5058,121
170,-0.0172712225467,5059,121
171,-0.0172883942723,5060,121
172,-0.0173396766186,5061,121
173,-0.0173566956073,5062,121
174,-0.0174075216055,5063,121
175,-0.0174412112683,5064,121
176,-0.0174579974264,5065,121
177,-0.0174914542586,5066,121
178,-0.0175081249326,5067,121
179,-0.0175579022616,5068,121
180,-0.0175744164735,5069,121
181,-0.0176237262785,5070,121
182,-0.0176400840282,5071,121
183,-0.0176726840436,5072,121
184,-0.0177212841809,5073,121
185,-0.0177534967661,5074,121
186,-0.0177855454385,5075,121
187,-0.0178015120327,5076,121
188,-0.0178491827101,5077,121
189,-0.0178649947047,5078,121
190,-0.0179122015834,5079,121
191,-0.0179278571159,5080,121
192,-0.0179434772581,5081,121
193,-0.0179901085794,5082,121
194,-0.0180055759847,5083,121
195,-0.0180517472327,5084,121
196,-0.0180670637637,5085,121
197,-0.0180975813419,5086,121
198,-0.0181430820376,5087,121
199,-0.0181581731886,5088,121
200,-0.0182032305747,5089,121
201,-0.0182330850512,5090,121
202,-0.0182479582727,5091,121
203,-0.0182775966823,5092,121
204,-0.0183217898011,5093,121
205,-0.0183510743082,5094,121
206,-0.0183656662703,5095,121
207,-0.0183802209795,5096,121
208,-0.018423685804,5097,121
209,-0.0184524897486,5098,121
210,-0.0184811595827,5099,121
211,-0.0185096971691,5100,121
212,-0.0185381025076,5101,121
213,-0.018566377461,5102,121
214,-0.0185945276171,5103,121
215,-0.0186225473881,5104,121
216,-0.0186504460871,5105,121
217,-0.0186782181263,5106,121
218,-0.0187058690935,5107,121
219,-0.018719650805,5108,121
220,-0.0187471210957,5109,121
221,-0.0187744740397,5110,121
222,-0.0188017114997,5111,121
223,-0.0188288334757,5112,121
224,-0.0188423525542,5113,121
225,-0.0188693087548,5114,121
226,-0.0189095325768,5115,121
227,-0.0189228858799,5116,121
228,-0.0189627874643,5117,121
229,-0.0189760345966,5118,121
230,-0.0190024543554,5119,121
231,-0.0190418902785,5120,121
232,-0.0190680548549,5121,121
233,-0.0190811008215,5122,121
234,-0.0191071145236,5123,121
235,-0.0191330332309,5124,121
236,-0.0191588569432,5125,121
237,-0.0191845875233,5126,121
238,-0.0192102268338,5127,121
239,-0.019235773012,5128,121
240,-0.0192612297833,5129,121
241,-0.0192739218473,5130,121
242,-0.0193118732423,5131,121
243,-0.0193370655179,5132,121
244,-0.0193621683866,5133,121
245,-0.0193746909499,5134,121
246,-0.0194121282548,5135,121
247,-0.019436981529,5136,121
248,-0.0194493755698,5137,121
249,-0.0194741059095,5138,121
250,-0.0195110533386,5139,121
251,-0.0195233300328,5140,121
252,-0.0195355825126,5141,121
253,-0.0195600315928,5142,121
254,-0.019584402442,5143,121
255,-0.0196086969227,5144,121
256,-0.019632909447,5145,121
257,-0.0196570437402,5146,121
258,-0.0196930970997,5147,121
259,-0.0197050776333,5148,121
260,-0.0197289753705,5149,121
261,-0.0197646841407,5150,121
262,-0.0197883881629,5151,121
263,-0.0198120176792,5152,121
264,-0.0198238007724,5153,121
265,-0.0198590364307,5154,121
266,-0.0198707431555,5155,121
267,-0.0198824293911,5156,121
268,-0.0199057403952,5157,121
269,-0.0199289731681,5158,121
270,-0.0199521239847,5159,121
271,-0.0199751891196,5160,121
272,-0.020009636879,5161,121
273,-0.0200324989855,5162,121
274,-0.0200438983738,5163,121
275,-0.0200666319579,5164,121
276,-0.0201005637646,5165,121
277,-0.0201118309051,5166,121
278,-0.0201343018562,5167,121
279,-0.020156679675,5168,121
280,-0.0201900769025,5169,121
281,-0.0202011633664,5170,121
282,-0.0202232617885,5171,121
283,-0.0202342774719,5172,121
284,-0.0202671736479,5173,121
285,-0.020288977772,5174,121
286,-0.0202998444438,5175,121
287,-0.0203322861344,5176,121
288,-0.0203537847847,5177,121
289,-0.0203751716763,5178,121
290,-0.0203858260065,5179,121
291,-0.0204176232219,5180,121
292,-0.0204281676561,5181,121
293,-0.02045962587,5182,121
294,-0.0204700548202,5183,121
295,-0.0205011572689,5184,121
296,-0.0205114688724,5185,121
297,-0.0205319933593,5186,121
298,-0.020552393049,5187,121
299,-0.0205726642162,5188,121
300,-0.0205928087234,5189,121
301,-0.0206128191203,5190,121
302,-0.0206326972693,5191,121
303,-0.0206425823271,5192,121
304,-0.0206720363349,5193,121
305,-0.0206914972514,5194,121
306,-0.0207108147442,5195,121
307,-0.02072041668,5196,121
308,-0.0207490045577,5197,121
309,-0.0207584574819,5198,121
310,-0.0207865890115,5199,121
311,-0.0208051484078,5200,121
312,-0.020814370364,5201,121
313,-0.020832689479,5202,121
314,-0.0208508484066,5203,121
315,-0.0208688415587,5204,121
316,-0.0208777766675,5205,121
317,-0.0209043230861,5206,121
318,-0.0209218077362,5207,121
319,-0.0209391154349,5208,121
320,-0.0209477040917,5209,121
321,-0.0209732055664,5210,121
322,-0.0209899768233,5211,121
323,-0.021006565541,5212,121
324,-0.021014790982,5213,121
325,-0.0210391804576,5214,121
326,-0.0210552029312,5215,121
327,-0.0210631433874,5216,121
328,-0.0210788790137,5217,121
329,-0.021086672321,5218,121
330,-0.0211097598076,5219,121
331,-0.0211248993874,5220,121
332,-0.0211398396641,5221,121
333,-0.0211545731872,5222,121
334,-0.0211691018194,5223,121
335,-0.0211834236979,5224,121
336,-0.0211975350976,5225,121
337,-0.0212114360183,5226,121
338,-0.0212183054537,5227,121
339,-0.0212385952473,5228,121
340,-0.0212518516928,5229,121
341,-0.0212583988905,5230,121
342,-0.0212713293731,5231,121
343,-0.021277712658,5232,121
344,-0.0212965235114,5233,121
345,-0.0213026832789,5234,121
346,-0.0213148351759,5235,121
347,-0.0213267616928,5236,121
348,-0.021344223991,5237,121
349,-0.0213555824012,5238,121
350,-0.0213667098433,5239,121
351,-0.0213776063174,5240,121
352,-0.0213829670101,5241,121
353,-0.0213935151696,5242,121
354,-0.0214038323611,5243,121
355,-0.0214188639075,5244,121
356,-0.0214285906404,5245,121
357,-0.0214333664626,5246,121
358,-0.021442739293,5247,121
359,-0.0214473363012,5248,121
360,-0.0214607659727,5249,121
361,-0.0214651226997,5250,121
362,-0.0214778315276,5251,121
363,-0.0214860029519,5252,121
364,-0.0214939359576,5253,121
365,-0.0215016249567,5254,121
366,-0.0215090699494,5255,121
367,-0.0215127039701,5256,121
368,-0.0215197838843,5257,121
369,-0.0215266216546,5258,121
370,-0.0215364135802,5259,121
371,-0.0215426366776,5260,121
372,-0.0215456578881,5261,121
373,-0.0215515084565,5262,121
374,-0.021554345265,5263,121
375,-0.0215624775738,5264,121
376,-0.0215650629252,5265,121
377,-0.0215700492263,5266,121
378,-0.0215770676732,5267,121
379,-0.0215814318508,5268,121
380,-0.021583519876,5269,121
381,-0.0215875133872,5270,121
382,-0.0215912535787,5271,121
383,-0.0215963963419,5272,121
384,-0.0215995125473,5273,121
385,-0.0216023735702,5274,121
386,-0.0216049868613,5275,121
387,-0.0216061975807,5276,121
388,-0.0216084327549,5277,121
389,-0.0216104127467,5278,121
390,-0.021611308679,5279,121
391,-0.0216136146337,5280,121
392,-0.021614253521,5281,121
393,-0.0216157995164,5282,121
394,-0.0216161888093,5283,121
395,-0.0216169673949,5284,121
396,-0.0216171015054,5285,121
397,-0.021617108956,5286,121
398,-0.0216169841588,5287,121
399,-0.0216162223369,5288,121
400,-0.0216158367693,5289,121
401,-0.0216148775071,5290,121
402,-0.0216129552573,5291,121
403,-0.0216121822596,5292,121
404,-0.0216104444116,5293,121
405,-0.0216084439307,5294,121
406,-0.0216061845422,5295,121
407,-0.0216049551964,5296,121
408,-0.0216008722782,5297,121
409,-0.0215978212655,5298,121
410,-0.0215961989015,5299,121
411,-0.0215909257531,5300,121
412,-0.0215870793909,5301,121
413,-0.021582968533,5302,121
414,-0.021578585729,5303,121
415,-0.0215739365667,5304,121
416,-0.0215715132654,5305,121
417,-0.0215664561838,5306,121
418,-0.021561132744,5307,121
419,-0.0215555336326,5308,121
420,-0.0215496607125,5309,121
421,-0.0215435177088,5310,121
422,-0.0215370990336,5311,121
423,-0.0215304028243,5312,121
424,-0.0215234290808,5313,121
425,-0.0215161815286,5314,121
426,-0.0215086527169,5315,121
427,-0.0215047840029,5316,121
428,-0.0214927550405,5317,121
429,-0.0214843824506,5318,121
430,-0.0214757267386,5319,121
431,-0.0214667879045,5320,121
432,-0.0214575622231,5321,121
433,-0.0214528404176,5322,121
434,-0.0214431863278,5323,121
435,-0.0214382503182,5324,121
436,-0.0214281640947,5325,121
437,-0.0214124843478,5326,121
438,-0.0214016679674,5327,121
439,-0.0213961470872,5328,121
440,-0.0213848929852,5329,121
441,-0.0213733427227,5330,121
442,-0.0213554594666,5331,121
443,-0.0213431622833,5332,121
444,-0.0213305708021,5333,121
445,-0.0213241595775,5334,121
446,-0.0213044788688,5335,121
447,-0.0212977677584,5336,121
448,-0.0212841164321,5337,121
449,-0.0212701577693,5338,121
450,-0.0212558973581,5339,121
451,-0.0212413258851,5340,121
452,-0.021226445213,5341,121
453,-0.0212112553418,5342,121
454,-0.0211957525462,5343,121
455,-0.0211799368262,5344,121
456,-0.0211719144136,5345,121
457,-0.0211473684758,5346,121
458,-0.0211306065321,5347,121
459,-0.0211135298014,5348,121
460,-0.0210961326957,5349,121
461,-0.021078415215,5350,121
462,-0.0210603754967,5351,121
463,-0.0210512336344,5352,121
464,-0.0210327096283,5353,121
465,-0.0210233256221,5354,121
466,-0.020994681865,5355,121
467,-0.0209849681705,5356,121
468,-0.0209553353488,5357,121
469,-0.0209351684898,5358,121
470,-0.0209146663547,5359,121
471,-0.0209042895585,5360,121
472,-0.0208832882345,5361,121
473,-0.0208511538804,5362,121
474,-0.0208293106407,5363,121
475,-0.020818259567,5364,121
476,-0.0207845959812,5365,121
477,-0.0207617282867,5366,121
478,-0.0207501612604,5367,121
479,-0.0207267738879,5368,121
480,-0.0207149516791,5369,121
481,-0.0206789597869,5370,121
482,-0.0206545274705,5371,121
483,-0.0206297431141,5372,121
484,-0.0206046048552,5373,121
485,-0.020579110831,5374,121
486,-0.0205532573164,5375,121
487,-0.0205270480365,5376,121
488,-0.0205004811287,5377,121
489,-0.0204735454172,5378,121
490,-0.0204462539405,5379,121
491,-0.0204185917974,5380,121
492,-0.0204046238214,5381,121
493,-0.0203764121979,5382,121
494,-0.0203621685505,5383,121
495,-0.0203334018588,5384,121
496,-0.0202895514667,5385,121
497,-0.0202598460019,5386,121
498,-0.0202297661453,5387,121
499,-0.0202145837247,5388,121
500,-0.0201684683561,5389,121
501,-0.0201372522861,5390,121
502,-0.0201056469232,5391,121
503,-0.0200736578554,5392,121
504,-0.0200412832201,5393,121
505,-0.0200249496847,5394,121
506,-0.0199753604829,5395,121
507,-0.0199418123811,5396,121
508,-0.01992489025,5397,121
509,-0.0198907461017,5398,121
510,-0.019856210798,5399,121
511,-0.0198387913406,5400,121
0,-0.0100200269371,4892,122
1,-0.0100471414626,4893,122
2,-0.0101012485102,4894,122
3,-0.0101821022108,4895,122
4,-0.0102089699358,4896,122
5,-0.0102625852451,4897,122
6,-0.0103160338476,4898,122
7,-0.010342694819,4899,122
8,-0.0103958938271,4900,122
9,-0.0104489261284,4901,122
10,-0.0105281611905,4902,122
11,-0.0105807762593,4903,122
12,-0.0106332227588,4904,122
13,-0.0106593836099,4905,122
14,-0.0107376128435,4906,122
15,-0.0107895545661,4907,122
16,-0.0108413286507,4908,122
17,-0.0108671514317,4909,122
18,-0.010944372043,4910,122
19,-0.0109956413507,4911,122
20,-0.0110467411578,4912,122
21,-0.011072229594,4913,122
22,-0.0111230788752,4914,122
23,-0.0111484397203,4915,122
24,-0.0111990375444,4916,122
25,-0.0112746180966,4917,122
26,-0.0113247986883,4918,122
27,-0.0113498242572,4919,122
28,-0.0114246532321,4920,122
29,-0.0114743309096,4921,122
30,-0.0114991078153,4922,122
31,-0.0115731889382,4923,122
32,-0.0115978000686,4924,122
33,-0.0116468966007,4925,122
34,-0.0117202335969,4926,122
35,-0.0117689166218,4927,122
36,-0.011793198064,4928,122
37,-0.0118416361511,4929,122
38,-0.011865792796,4930,122
39,-0.011938020587,4931,122
40,-0.0119620133191,4932,122
41,-0.0120337503031,4933,122
42,-0.012081370689,4934,122
43,-0.0121288290247,4935,122
44,-0.0121761262417,4936,122
45,-0.0121997138485,4937,122
46,-0.0122467689216,4938,122
47,-0.0123170465231,4939,122
48,-0.0123403929174,4940,122
49,-0.0124101880938,4941,122
50,-0.0124333733693,4942,122
51,-0.0125026907772,4943,122
52,-0.0125257158652,4944,122
53,-0.0125716468319,4945,122
54,-0.0126174185425,4946,122
55,-0.0126402452588,4947,122
56,-0.0127084869891,4948,122
57,-0.0127311544493,4949,122
58,-0.0127989212051,4950,122
59,-0.0128439022228,4951,122
60,-0.0128887239844,4952,122
61,-0.0129110757262,4953,122
62,-0.0129778981209,4954,122
63,-0.0130222486332,4955,122
64,-0.0130664436147,4956,122
65,-0.0130884815007,4957,122
66,-0.0131324436516,4958,122
67,-0.0131762474775,4959,122
68,-0.0132198976353,4960,122
69,-0.0132416626438,4961,122
70,-0.0133067285642,4962,122
71,-0.0133499130607,4963,122
72,-0.0133929429576,4964,122
73,-0.0134358182549,4965,122
74,-0.0134571986273,4966,122
75,-0.0134998429567,4967,122
76,-0.0135635212064,4968,122
77,-0.0136057836935,4969,122
78,-0.0136478925124,4970,122
79,-0.0136688901111,4971,122
80,-0.0137107726187,4972,122
81,-0.0137525014579,4973,122
82,-0.0137940803543,4974,122
83,-0.0138148134574,4975,122
84,-0.0138561660424,4976,122
85,-0.0139179145917,4977,122
86,-0.0139588946477,4978,122
87,-0.013999725692,4979,122
88,-0.0140404077247,4980,122
89,-0.0140809426084,4981,122
90,-0.0141213303432,4982,122
91,-0.0141615727916,4983,122
92,-0.0142016690224,4984,122
93,-0.0142416190356,4985,122
94,-0.0142814265564,4986,122
95,-0.0143210897222,4987,122
96,-0.0143606094643,4988,122
97,-0.0143803171813,4989,122
98,-0.0143999867141,4990,122
99,-0.0144587894902,4991,122
100,-0.0144978137687,4992,122
101,-0.0145366983488,4993,122
102,-0.0145754469559,4994,122
103,-0.0146140567958,4995,122
104,-0.0146333100274,4996,122
105,-0.0146908648312,4997,122
106,-0.0147290648893,4998,122
107,-0.0147481150925,4999,122
108,-0.014805065468,5000,122
109,-0.0148428669199,5001,122
110,-0.0148805342615,5002,122
111,-0.0148993209004,5003,122
112,-0.0149367945269,5004,122
113,-0.0149554824457,5005,122
114,-0.014992762357,5006,122
115,-0.0150299156085,5007,122
116,-0.0150669422001,5008,122
117,-0.0151222478598,5009,122
118,-0.0151406200603,5010,122
119,-0.0151955541223,5011,122
120,-0.0152138033882,5012,122
121,-0.0152502115816,5013,122
122,-0.0153046008199,5014,122
123,-0.0153407100588,5015,122
124,-0.0153587209061,5016,122
125,-0.0153946550563,5017,122
126,-0.0154483383521,5018,122
127,-0.0154661750421,5019,122
128,-0.0155017636716,5020,122
129,-0.0155195137486,5021,122
130,-0.015572598204,5022,122
131,-0.0155902383849,5023,122
132,-0.0156429875642,5024,122
133,-0.0156780183315,5025,122
134,-0.0157129392028,5026,122
135,-0.015747750178,5027,122
136,-0.0157651156187,5028,122
137,-0.0158170554787,5029,122
138,-0.0158515479416,5030,122
139,-0.0158687531948,5031,122
140,-0.0159202255309,5032,122
141,-0.0159373283386,5033,122
142,-0.0159714575857,5034,122
143,-0.0160054862499,5035,122
144,-0.0160394124687,5036,122
145,-0.0160732381046,5037,122
146,-0.016090111807,5038,122
147,-0.0161405876279,5039,122
148,-0.0161741152406,5040,122
149,-0.0162075422704,5041,122
150,-0.0162242203951,5042,122
151,-0.0162741020322,5043,122
152,-0.0163072366267,5044,122
153,-0.0163402725011,5045,122
154,-0.0163732096553,5046,122
155,-0.0164060480893,5047,122
156,-0.0164387878031,5048,122
157,-0.0164714306593,5049,122
158,-0.0164877157658,5050,122
159,-0.0165039785206,5051,122
160,-0.0165364295244,5052,122
161,-0.0165849272162,5053,122
162,-0.0166171360761,5054,122
