,amplitude,tstep,vfp
0,0.0100557720289,2515,125
1,0.0102067943662,2516,125
2,0.0103576295078,2517,125
3,0.0104329576716,2518,125
4,0.010658477433,2519,125
5,0.0108083607629,2520,125
6,0.01095779147,2521,125
7,0.0110323186964,2522,125
8,0.01118095126,2523,125
9,0.0113289728761,2524,125
10,0.0114027317613,2525,125
11,0.0116229150444,2526,125
12,0.0116959176958,2527,125
13,0.0119136366993,2528,125
14,0.0120576331392,2529,125
15,0.0121292620897,2530,125
16,0.0122717460617,2531,125
17,0.0124834263697,2532,125
18,0.012553408742,2533,125
19,0.0126924701035,2534,125
20,0.0128986882046,2535,125
21,0.013034503907,2536,125
22,0.0131689263508,2537,125
23,0.0132356006652,2538,125
24,0.0133678419515,2539,125
25,0.0134985633194,2540,125
26,0.0136277191341,2541,125
27,0.013755261898,2542,125
28,0.0138184167445,2543,125
29,0.0139434589073,2544,125
30,0.0140667837113,2545,125
31,0.0142484595999,2546,125
32,0.0143673168495,2547,125
33,0.0144843254238,2548,125
34,0.0145994527265,2549,125
35,0.0147126698866,2550,125
36,0.0148239498958,2551,125
37,0.014933263883,2552,125
38,0.0149871781468,2553,125
39,0.0150935035199,2554,125
40,0.0151459109038,2555,125
41,0.0153000820428,2556,125
42,0.0154003035277,2557,125
43,0.0154984593391,2558,125
44,0.0155945392326,2559,125
45,0.0156417991966,2560,125
46,0.0157347526401,2561,125
47,0.0158702619374,2562,125
48,0.015957981348,2563,125
49,0.0160436071455,2564,125
50,0.0161271430552,2565,125
51,0.0161681305617,2566,125
52,0.0162485390902,2567,125
53,0.0163268763572,2568,125
54,0.0163652747869,2569,125
55,0.016440520063,2570,125
56,0.0165495667607,2571,125
57,0.0166197363287,2572,125
58,0.0166540723294,2573,125
59,0.0167540982366,2574,125
60,0.0168183296919,2575,125
61,0.0168497227132,2576,125
62,0.0169410239905,2577,125
63,0.0169995352626,2578,125
64,0.0170561894774,2579,125
65,0.0171110276133,2580,125
66,0.0171377714723,2581,125
67,0.0172153506428,2582,125
68,0.0172649044544,2583,125
69,0.0172890461981,2584,125
70,0.0173360761255,2585,125
71,0.0173814631999,2586,125
72,0.017425250262,2587,125
73,0.0174465551972,2588,125
74,0.0174880009145,2589,125
75,0.0175473615527,2590,125
76,0.017585111782,2591,125
77,0.0176034551114,2592,125
78,0.017639093101,2593,125
79,0.0176900271326,2594,125
80,0.0177063476294,2595,125
81,0.0177380368114,2596,125
82,0.017783254385,2597,125
83,0.0178119130433,2598,125
84,0.0178258083761,2599,125
85,0.0178527552634,2600,125
86,0.0178786125034,2601,125
87,0.0179034098983,2602,125
88,0.0179154239595,2603,125
89,0.0179499723017,2604,125
90,0.0179718025029,2605,125
91,0.0179927069694,2606,125
92,0.0180127173662,2607,125
93,0.0180318634957,2608,125
94,0.0180501714349,2609,125
95,0.0180676691234,2610,125
96,0.0180761199445,2611,125
97,0.0181003306061,2612,125
98,0.0181080289185,2613,125
99,0.018122876063,2614,125
100,0.018137017265,2615,125
101,0.0181504692882,2616,125
102,0.0181632488966,2617,125
103,0.0181693900377,2618,125
104,0.0181868448853,2619,125
105,0.0181976892054,2620,125
106,0.018207911402,2621,125
107,0.0182175152004,2622,125
108,0.0182265136391,2623,125
109,0.0182307884097,2624,125
110,0.0182388871908,2625,125
111,0.0182499140501,2626,125
112,0.0182565208524,2627,125
113,0.0182625316083,2628,125
114,0.0182653125376,2629,125
115,0.0182679407299,2630,125
116,0.0182749200612,2631,125
117,0.0182788092643,2632,125
118,0.0182820763439,2633,125
119,0.0182847138494,2634,125
120,0.0182867124677,2635,125
121,0.0182880610228,2636,125
122,0.0182887502015,2637,125
123,0.0182887595147,2638,125
124,0.0182885061949,2639,125
125,0.0182867050171,2640,125
126,0.0182857457548,2641,125
127,0.0182817727327,2642,125
128,0.018280075863,2643,125
129,0.0182761121541,2644,125
130,0.0182738415897,2645,125
131,0.0182658471167,2646,125
132,0.0182595085353,2647,125
133,0.018252344802,2648,125
134,0.0182443372905,2649,125
135,0.0182400140911,2650,125
136,0.0182257387787,2651,125
137,0.0182151142508,2652,125
138,0.01820358634,2653,125
139,0.0181911401451,2654,125
140,0.0181777644902,2655,125
141,0.018163440749,2656,125
142,0.0181481670588,2657,125
143,0.0181319266558,2658,125
144,0.0181234423071,2659,125
145,0.0181147158146,2660,125
146,0.0180965177715,2661,125
147,0.0180673766881,2662,125
148,0.0180467069149,2663,125
149,0.0180250424892,2664,125
150,0.0180023852736,2665,125
151,0.0179906841367,2666,125
152,0.0179540924728,2667,125
153,0.0179414022714,2668,125
154,0.0179018620402,2669,125
155,0.0178742911667,2670,125
156,0.0178457628936,2671,125
157,0.0178162958473,2672,125
158,0.0177859012038,2673,125
159,0.0177703648806,2674,125
160,0.0177386179566,2675,125
161,0.0177059955895,2676,125
162,0.017689364031,2677,125
163,0.0176382213831,2678,125
164,0.0176207702607,2679,125
165,0.0175852831453,2680,125
166,0.017530657351,2681,125
167,0.0174933578819,2682,125
168,0.0174553971738,2683,125
169,0.0174168162048,2684,125
170,0.0173776503652,2685,125
171,0.0173578653485,2686,125
172,0.0172977559268,2687,125
173,0.017257111147,2688,125
174,0.0172160733491,2689,125
175,0.0171954166144,2690,125
176,0.0171538759023,2691,125
177,0.0171120669693,2692,125
178,0.0170700401068,2693,125
179,0.0170278549194,2694,125
180,0.0170067194849,2695,125
181,0.0169432330877,2696,125
182,0.0169220678508,2697,125
183,0.0168797764927,2698,125
184,0.0168165508658,2699,125
185,0.0167955607176,2700,125
186,0.0167329590768,2701,125
187,0.0166916083544,2702,125
188,0.0166506301612,2703,125
189,0.016630301252,2704,125
190,0.0165900010616,2705,125
191,0.0165700446814,2706,125
192,0.016511047259,2707,125
193,0.0164725072682,2708,125
194,0.0164346788079,2709,125
195,0.0163976084441,2710,125
196,0.0163613576442,2711,125
197,0.0163259785622,2712,125
198,0.0162915289402,2713,125
199,0.0162580572069,2714,125
200,0.0162256155163,2715,125
201,0.0161942467093,2716,125
202,0.016178984195,2717,125
203,0.0161349251866,2718,125
204,0.0161070525646,2719,125
205,0.0160935819149,2720,125
206,0.0160675924271,2721,125
207,0.0160550810397,2722,125
208,0.0160195361823,2723,125
209,0.0159975253046,2724,125
210,0.0159768983722,2725,125
211,0.0159671120346,2726,125
212,0.0159398745745,2727,125
213,0.0159235075116,2728,125
214,0.0159158669412,2729,125
215,0.0158951263875,2730,125
216,0.0158889424056,2731,125
217,0.01587257348,2732,125
218,0.015867844224,2733,125
219,0.015859477222,2734,125
220,0.0158525519073,2735,125
221,0.0158470496535,2736,125
222,0.0158429630101,2737,125
223,0.0158414375037,2738,125
224,0.0158389117569,2739,125
225,0.0158388987184,2740,125
226,0.0158401783556,2741,125
227,0.0158412922174,2742,125
228,0.0158444456756,2743,125
229,0.0158513970673,2744,125
230,0.0158574357629,2745,125
231,0.0158645417541,2746,125
232,0.015868473798,2747,125
233,0.0158817097545,2748,125
234,0.015891648829,2749,125
235,0.0158969275653,2750,125
236,0.0159080550075,2751,125
237,0.0159198865294,2752,125
238,0.0159260425717,2753,125
239,0.0159453488886,2754,125
240,0.0159588139504,2755,125
241,0.0159726571292,2756,125
242,0.0159867871553,2757,125
243,0.016001118347,2758,125
244,0.0160155557096,2759,125
245,0.0160227846354,2760,125
246,0.0160443615168,2761,125
247,0.0160514786839,2762,125
248,0.0160724166781,2763,125
249,0.0160859152675,2764,125
250,0.0160924848169,2765,125
251,0.016105202958,2766,125
252,0.0161172766238,2767,125
253,0.0161230359226,2768,125
254,0.0161390565336,2769,125
255,0.0161485504359,2770,125
256,0.0161569770426,2771,125
257,0.0161607563496,2772,125
258,0.0161701962352,2773,125
259,0.0161726661026,2774,125
260,0.0161778740585,2775,125
261,0.0161793790758,2776,125
262,0.0161791909486,2777,125
263,0.0161772109568,2778,125
264,0.0161733441055,2779,125
265,0.016170669347,2780,125
266,0.0161637868732,2781,125
267,0.0161547791213,2782,125
268,0.0161494519562,2783,125
269,0.0161300376058,2784,125
270,0.0161141250283,2785,125
271,0.0161052513868,2786,125
272,0.016074821353,2787,125
273,0.0160633791238,2788,125
274,0.0160250309855,2789,125
275,0.0159960333258,2790,125
276,0.0159642100334,2791,125
277,0.0159295033664,2792,125
278,0.0158918555826,2793,125
279,0.015871912241,2794,125
280,0.0158297643065,2795,125
281,0.0158075429499,2796,125
282,0.0157607868314,2797,125
283,0.0156848002225,2798,125
284,0.0156301874667,2799,125
285,0.0155723839998,2800,125
286,0.0155422789976,2801,125
287,0.0154796494171,2802,125
288,0.0154137825593,2803,125
289,0.0153088960797,2804,125
290,0.0152723100036,2805,125
291,0.0151576781645,2806,125
292,0.0151178473607,2807,125
293,0.0150357633829,2808,125
294,0.0149066122249,2809,125
295,0.0148165263236,2810,125
296,0.0147702982649,2811,125
297,0.0146754914895,2812,125
298,0.0145775815472,2813,125
299,0.014476605691,2814,125
300,0.0143726086244,2815,125
301,0.0143194934353,2816,125
302,0.0141557557508,2817,125
303,0.0140997376293,2818,125
304,0.0139274662361,2819,125
305,0.0138091873378,2820,125
306,0.0136882476509,2821,125
307,0.0135647160932,2822,125
308,0.0134386746213,2823,125
309,0.0133747356012,2824,125
310,0.0131793795153,2825,125
311,0.0131131159142,2826,125
312,0.0129789365456,2827,125
313,0.0128426356241,2828,125
314,0.0127043025568,2829,125
315,0.0126344058663,2830,125
316,0.0124219376594,2831,125
317,0.0123502323404,2832,125
318,0.0121326427907,2833,125
319,0.0119856549427,2834,125
320,0.0118372486904,2835,125
321,0.0116875302047,2836,125
322,0.0116122150794,2837,125
323,0.0113845989108,2838,125
324,0.0112316040322,2839,125
325,0.0110777365044,2840,125
326,0.0110005112365,2841,125
327,0.0108455456793,2842,125
328,0.0106899859384,2843,125
329,0.010533942841,2844,125
330,0.010455776006,2845,125
331,0.0102208536118,2846,125
332,0.0100640226156,2847,125
333,-0.0102000385523,3244,125
334,-0.0103998407722,3245,125
335,-0.0105988839641,3246,125
336,-0.0106980884448,3247,125
337,-0.0109942900017,3248,125
338,-0.0110925110057,3249,125
339,-0.0111904544756,3250,125
340,-0.0114825069904,3251,125
341,-0.0116756064817,3252,125
342,-0.0118673210964,3253,125
343,-0.0120575567707,3254,125
344,-0.0121520934626,3255,125
345,-0.0124332550913,3256,125
346,-0.0126185528934,3257,125
347,-0.0127105293795,3258,125
348,-0.0128930900246,3259,125
349,-0.0130737377331,3260,125
350,-0.0133409658447,3261,125
351,-0.0135165303946,3262,125
352,-0.0136899556965,3263,125
353,-0.0137758478522,3264,125
354,-0.0138611858711,3265,125
355,-0.0140301734209,3266,125
356,-0.0142793487757,3267,125
357,-0.0144425379112,3268,125
358,-0.0146033465862,3269,125
359,-0.0147617459297,3270,125
360,-0.0149177126586,3271,125
361,-0.0150712309405,3272,125
362,-0.0152222877368,3273,125
363,-0.0153708765283,3274,125
364,-0.015516997315,3275,125
365,-0.0156606566161,3276,125
366,-0.0158018618822,3277,125
367,-0.0158715490252,3278,125
368,-0.0160769876093,3279,125
369,-0.0161442700773,3280,125
370,-0.0162770617753,3281,125
371,-0.0164075233042,3282,125
372,-0.01647188887,3283,125
373,-0.0166616234928,3284,125
374,-0.0167237650603,3285,125
375,-0.0169069878757,3286,125
376,-0.0170265454799,3287,125
377,-0.017144119367,3288,125
378,-0.017202179879,3289,125
379,-0.0173736065626,3290,125
380,-0.0174298640341,3291,125
381,-0.0175961311907,3292,125
382,-0.0176507607102,3293,125
383,-0.0178124420345,3294,125
384,-0.0178656466305,3295,125
385,-0.0179711021483,3296,125
386,-0.0180753804743,3297,125
387,-0.0181271154433,3298,125
388,-0.0182808768004,3299,125
389,-0.018382338807,3300,125
390,-0.0184831134975,3301,125
391,-0.0185833349824,3302,125
392,-0.0186332743615,3303,125
393,-0.0187329109758,3304,125
394,-0.0188820026815,3305,125
395,-0.0189813580364,3306,125
396,-0.0190808456391,3307,125
397,-0.0191806107759,3308,125
398,-0.0192306432873,3309,125
399,-0.0193310938776,3310,125
400,-0.0194321833551,3311,125
401,-0.0195340588689,3312,125
402,-0.0195853374898,3313,125
403,-0.0197407435626,3314,125
404,-0.0198458433151,3315,125
405,-0.0198988951743,3316,125
406,-0.02000608854,3317,125
407,-0.0201148539782,3318,125
408,-0.0202253311872,3319,125
409,-0.0203376542777,3320,125
410,-0.0205098967999,3321,125
411,-0.0206274148077,3322,125
412,-0.0206870306283,3323,125
413,-0.020808044821,3324,125
414,-0.0209315419197,3325,125
415,-0.0210576336831,3326,125
416,-0.0211864281446,3327,125
417,-0.0212518777698,3328,125
418,-0.0213849283755,3329,125
419,-0.0215900838375,3330,125
420,-0.0217307060957,3331,125
421,-0.0218745060265,3332,125
422,-0.0220215637237,3333,125
423,-0.0220963321626,3334,125
424,-0.0223257131875,3335,125
425,-0.0224829278886,3336,125
426,-0.0226436387748,3337,125
427,-0.0228078886867,3338,125
428,-0.0229757074267,3339,125
429,-0.0230609644204,3340,125
430,-0.0232341904193,3341,125
431,-0.0234110411257,3342,125
432,-0.02359152399,3343,125
433,-0.0236831307411,3344,125
434,-0.023963380605,3345,125
435,-0.0241547301412,3346,125
436,-0.0242517516017,3347,125
437,-0.0244484618306,3348,125
438,-0.0247501321137,3349,125
439,-0.0249555837363,3350,125
440,-0.0251644384116,3351,125
441,-0.0253766328096,3352,125
442,-0.025592090562,3353,125
443,-0.0257010180503,3354,125
444,-0.0259212162346,3355,125
445,-0.0261444654316,3356,125
446,-0.0262572020292,3357,125
447,-0.0264848321676,3358,125
448,-0.0268314611167,3359,125
449,-0.0270658284426,3360,125
450,-0.0273026712239,3361,125
451,-0.0275418553501,3362,125
452,-0.027783235535,3363,125
453,-0.0279047042131,3364,125
454,-0.0282720010728,3365,125
455,-0.0283953268081,3366,125
456,-0.0286432076246,3367,125
457,-0.0290177669376,3368,125
458,-0.0292690526694,3369,125
459,-0.0293950978667,3370,125
460,-0.0295213852078,3371,125
461,-0.0299014654011,3372,125
462,-0.0301556251943,3373,125
463,-0.0304101835936,3374,125
464,-0.0306649468839,3375,125
465,-0.0309197157621,3376,125
466,-0.0311742946506,3377,125
467,-0.0314284786582,3378,125
468,-0.03168207407,3379,125
469,-0.0319348722696,3380,125
470,-0.0321866720915,3381,125
471,-0.0323121324182,3382,125
472,-0.0326864458621,3383,125
473,-0.0329340212047,3384,125
474,-0.0330571383238,3385,125
475,-0.0333019085228,3386,125
476,-0.0335445739329,3387,125
477,-0.0336650423706,3388,125
478,-0.0340227335691,3389,125
479,-0.0342578440905,3390,125
480,-0.0344900526106,3391,125
481,-0.0347191728652,3392,125
482,-0.0349450148642,3393,125
483,-0.0350566469133,3394,125
484,-0.0352772288024,3395,125
485,-0.0354940854013,3396,125
486,-0.0357070341706,3397,125
487,-0.0360187888145,3398,125
488,-0.0362212657928,3399,125
489,-0.0363208390772,3400,125
490,-0.0365165583789,3401,125
491,-0.0366126671433,3402,125
492,-0.036893773824,3403,125
493,-0.036985013634,3404,125
494,-0.0371636934578,3405,125
495,-0.0373372100294,3406,125
496,-0.0375875271857,3407,125
497,-0.0377476029098,3408,125
498,-0.0378255620599,3409,125
499,-0.0379772521555,3410,125
500,-0.0381940491498,3411,125
501,-0.0383312888443,3412,125
502,-0.0384626053274,3413,125
503,-0.0385260246694,3414,125
504,-0.038648314774,3415,125
505,-0.0387645103037,3416,125
506,-0.0388745628297,3417,125
507,-0.038927257061,3418,125
508,-0.0390759930015,3419,125
509,-0.039167303592,3420,125
510,-0.0392105951905,3421,125
511,-0.0393309555948,3422,125
512,-0.0394032485783,3423,125
513,-0.0394691638649,3424,125
514,-0.039499733597,3425,125
515,-0.0395818687975,3426,125
516,-0.0396060571074,3427,125
517,-0.0396690703928,3428,125
518,-0.0397031456232,3429,125
519,-0.0397308878601,3430,125
520,-0.0397423878312,3431,125
521,-0.0397523231804,3432,125
522,-0.0397674888372,3433,125
523,-0.0397785492241,3434,125
524,-0.03977913782,3435,125
525,-0.0397717095912,3436,125
526,-0.0397591367364,3437,125
527,-0.0397405363619,3438,125
528,-0.0397289991379,3439,125
529,-0.0397014580667,3440,125
530,-0.0396680422127,3441,125
531,-0.0396070405841,3442,125
532,-0.0395592153072,3443,125
533,-0.039505738765,3444,125
534,-0.0394466966391,3445,125
535,-0.0394151099026,3446,125
536,-0.0393821597099,3447,125
537,-0.039312209934,3448,125
538,-0.0391972847283,3449,125
539,-0.0391563624144,3450,125
540,-0.039025850594,3451,125
541,-0.0389798097312,3452,125
542,-0.0388341955841,3453,125
543,-0.0387310050428,3454,125
544,-0.0386230051517,3455,125
545,-0.0385672338307,3456,125
546,-0.0384522005916,3457,125
547,-0.0382710658014,3458,125
548,-0.0381447188556,3459,125
549,-0.0380140058696,3460,125
550,-0.0379470288754,3461,125
551,-0.0378099121153,3462,125
552,-0.0376686304808,3463,125
553,-0.0375232771039,3464,125
554,-0.0373739227653,3465,125
555,-0.0372206568718,3466,125
556,-0.0370635725558,3467,125
557,-0.0369027331471,3468,125
558,-0.0368209257722,3469,125
559,-0.0366546139121,3470,125
560,-0.0363985188305,3471,125
561,-0.0362234786153,3472,125
562,-0.0360450893641,3473,125
563,-0.0359546616673,3474,125
564,-0.0356785580516,3475,125
565,-0.0355849452317,3476,125
566,-0.0353954061866,3477,125
567,-0.0352028571069,3478,125
568,-0.0350073575974,3479,125
569,-0.034808985889,3480,125
570,-0.0346078127623,3481,125
571,-0.0345061980188,3482,125
572,-0.0343009531498,3483,125
573,-0.0339881889522,3484,125
574,-0.0337765142322,3485,125
575,-0.0336697436869,3486,125
576,-0.0334544107318,3487,125
577,-0.0332367233932,3488,125
578,-0.0330167487264,3489,125
579,-0.0326826572418,3490,125
580,-0.0325702242553,3491,125
581,-0.0323438048363,3492,125
582,-0.0321153700352,3493,125
583,-0.0320004224777,3494,125
584,-0.0316527336836,3495,125
585,-0.0314186625183,3496,125
586,-0.0311828386039,3497,125
587,-0.0310642961413,3498,125
588,-0.0307062398642,3499,125
589,-0.0304655935615,3500,125
590,-0.0303447172046,3501,125
591,-0.0299799684435,3502,125
592,-0.0298577100039,3503,125
593,-0.0296122245491,3504,125
594,-0.0292417295277,3505,125
595,-0.0291176587343,3506,125
596,-0.0289933178574,3507,125
597,-0.0287438631058,3508,125
598,-0.0284934360534,3509,125
599,-0.0281161349267,3510,125
600,-0.0278636030853,3511,125
601,-0.0277370624244,3512,125
602,-0.0274834856391,3513,125
603,-0.0272293128073,3514,125
604,-0.0268470905721,3515,125
605,-0.0265917461365,3516,125
606,-0.0264639444649,3517,125
607,-0.0262081325054,3518,125
608,-0.0259521007538,3519,125
609,-0.0255678109825,3520,125
610,-0.0253115706146,3521,125
611,-0.0251834653318,3522,125
612,-0.0250553824008,3523,125
613,-0.0246713645756,3524,125
614,-0.0244156401604,3525,125
615,-0.0242878943682,3526,125
616,-0.0239052325487,3527,125
617,-0.0236506946385,3528,125
618,-0.0233967043459,3529,125
619,-0.0231433361769,3530,125
620,-0.0228906627744,3531,125
621,-0.0226387493312,3532,125
622,-0.022387675941,3533,125
623,-0.0221375077963,3534,125
624,-0.021888313815,3535,125
625,-0.0216401573271,3536,125
626,-0.021516494453,3537,125
627,-0.0212700236589,3538,125
628,-0.0210247579962,3539,125
629,-0.0207807570696,3540,125
630,-0.0206592474133,3541,125
631,-0.0204172525555,3542,125
632,-0.0200569164008,3543,125
633,-0.0199375413358,3544,125
634,-0.0195817127824,3545,125
635,-0.019346466288,3546,125
636,-0.0191128570586,3547,125
637,-0.0189966764301,3548,125
638,-0.0186507161707,3549,125
639,-0.0184222646058,3550,125
640,-0.0181956104934,3551,125
641,-0.0180829651654,3552,125
642,-0.017970783636,3553,125
643,-0.0176370367408,3554,125
644,-0.0174169111997,3555,125
645,-0.017198709771,3556,125
646,-0.0170903392136,3557,125
647,-0.0167681667954,3558,125
648,-0.0166617613286,3559,125
649,-0.016450446099,3560,125
650,-0.0161372292787,3561,125
651,-0.0159309301525,3562,125
652,-0.0157266482711,3563,125
653,-0.0155243873596,3564,125
654,-0.0154240131378,3565,125
655,-0.0151259228587,3566,125
656,-0.0150275668129,3567,125
657,-0.0148323634639,3568,125
658,-0.0146391633898,3569,125
659,-0.0145433098078,3570,125
660,-0.0142587292939,3571,125
661,-0.0140714691952,3572,125
662,-0.0139785734937,3573,125
663,-0.0137027930468,3574,125
664,-0.0135213369504,3575,125
665,-0.0133417770267,3576,125
666,-0.0131640937179,3577,125
667,-0.0129882637411,3578,125
668,-0.0129010351375,3579,125
669,-0.0127279376611,3580,125
670,-0.0124716432765,3581,125
671,-0.0123870940879,3582,125
672,-0.012219295837,3583,125
673,-0.0120532130823,3584,125
674,-0.0119708050042,3585,125
675,-0.0117260823026,3586,125
676,-0.011564983055,3587,125
677,-0.0114054912701,3588,125
678,-0.0112475845963,3589,125
679,-0.0110912332311,3590,125
680,-0.0109364148229,3591,125
681,-0.0107831060886,3592,125
682,-0.0107070114464,3593,125
