,amplitude,tstep,vfp
0,-0.0100480439141,4214,125
1,-0.0101123126224,4215,125
2,-0.0101752253249,4216,125
3,-0.0102061722428,4217,125
4,-0.0102367810905,4218,125
5,-0.0103265689686,4219,125
6,-0.0103847291321,4220,125
7,-0.010413300246,4221,125
8,-0.0104969805107,4222,125
9,-0.010551078245,4223,125
10,-0.010603829287,4224,125
11,-0.0106552410871,4225,125
12,-0.0106804445386,4226,125
13,-0.0107540655881,4227,125
14,-0.0107779456303,4228,125
15,-0.0108476178721,4229,125
16,-0.0108924387023,4230,125
17,-0.0109359715134,4231,125
18,-0.0109782265499,4232,125
19,-0.0109988804907,4233,125
20,-0.011019218713,4234,125
21,-0.0110783642158,4235,125
22,-0.0111162569374,4236,125
23,-0.011152934283,4237,125
24,-0.0111884139478,4238,125
25,-0.0112227136269,4239,125
26,-0.0112558491528,4240,125
27,-0.0112719871104,4241,125
28,-0.0113187050447,4242,125
29,-0.0113484617323,4243,125
30,-0.0113771315664,4244,125
31,-0.0113910660148,4245,125
32,-0.0114312889054,4246,125
33,-0.0114568183199,4247,125
34,-0.0114692058414,4248,125
35,-0.0114932395518,4249,125
36,-0.0115048903972,4250,125
37,-0.0115384170786,4251,125
38,-0.0115596046671,4252,125
39,-0.01156985946,4253,125
40,-0.0115992976353,4254,125
41,-0.0116178495809,4255,125
42,-0.0116355670616,4256,125
43,-0.0116441231221,4257,125
44,-0.011668602936,4258,125
45,-0.0116763785481,4259,125
46,-0.0116985952482,4260,125
47,-0.0117125092074,4261,125
48,-0.011725733988,4262,125
49,-0.0117320967838,4263,125
50,-0.0117382956669,4264,125
51,-0.0117559405044,4265,125
52,-0.0117615154013,4266,125
53,-0.0117722190917,4267,125
54,-0.0117872143164,4268,125
55,-0.0117965340614,4269,125
56,-0.0118053378537,4270,125
57,-0.0118136527017,4271,125
58,-0.011817632243,4272,125
59,-0.011828891933,4273,125
60,-0.0118358628824,4274,125
61,-0.0118424277753,4275,125
62,-0.0118486080319,4276,125
63,-0.0118515612558,4277,125
64,-0.0118572032079,4278,125
65,-0.0118598975241,4279,125
66,-0.0118650468066,4280,125
67,-0.0118698915467,4281,125
68,-0.0118744494393,4282,125
69,-0.0118787391111,4283,125
70,-0.0118847098202,4284,125
71,-0.0118884081021,4285,125
72,-0.0118918996304,4286,125
73,-0.0118951974437,4287,125
74,-0.0118983210996,4288,125
75,-0.011901284568,4289,125
76,-0.0119027113542,4290,125
77,-0.0119067877531,4291,125
78,-0.0119093554094,4292,125
79,-0.0119105977938,4293,125
80,-0.0119130136445,4294,125
81,-0.0119153428823,4295,125
82,-0.0119175976142,4296,125
83,-0.0119186993688,4297,125
84,-0.0119219282642,4298,125
85,-0.011924026534,4299,125
86,-0.011925063096,4300,125
87,-0.0119281345978,4301,125
88,-0.0119301630184,4302,125
89,-0.0119321839884,4303,125
90,-0.0119331954047,4304,125
91,-0.0119362408295,4305,125
92,-0.0119372624904,4306,125
93,-0.011940359138,4307,125
94,-0.0119414050132,4308,125
95,-0.0119435191154,4309,125
96,-0.0119456676766,4310,125
97,-0.0119467582554,4311,125
98,-0.0119500914589,4312,125
99,-0.0119512276724,4313,125
100,-0.0119547089562,4314,125
101,-0.0119558954611,4315,125
102,-0.011959544383,4316,125
103,-0.0119620496407,4317,125
104,-0.0119646182284,4318,125
105,-0.0119672464207,4319,125
106,-0.0119699388742,4320,125
107,-0.0119713097811,4321,125
108,-0.0119740981609,4322,125
109,-0.0119769498706,4323,125
110,-0.0119798667729,4324,125
111,-0.0119813485071,4325,125
112,-0.0119858877733,4326,125
113,-0.0119889900088,4327,125
114,-0.011992151849,4328,125
115,-0.0119953714311,4329,125
116,-0.0119986478239,4330,125
117,-0.0120019754395,4331,125
118,-0.0120053542778,4332,125
119,-0.0120070604607,4333,125
120,-0.0120105100796,4334,125
121,-0.0120157608762,4335,125
122,-0.0120193082839,4336,125
123,-0.0120228901505,4337,125
124,-0.0120246913284,4338,125
125,-0.0120283141732,4339,125
126,-0.0120319584385,4340,125
127,-0.0120356222615,4341,125
128,-0.012039299123,4342,125
129,-0.0120429825038,4343,125
130,-0.0120466696098,4344,125
131,-0.0120503529906,4345,125
132,-0.0120540279895,4346,125
133,-0.0120576880872,4347,125
134,-0.0120613314211,4348,125
135,-0.0120649477467,4349,125
136,-0.0120685333386,4350,125
137,-0.012070313096,4351,125
138,-0.012073840946,4352,125
139,-0.0120773212984,4353,125
140,-0.0120807522908,4354,125
141,-0.0120841227472,4355,125
142,-0.012087428011,4356,125
143,-0.012090661563,4357,125
144,-0.0120938187465,4358,125
145,-0.0120968911797,4359,125
146,-0.012098393403,4360,125
147,-0.0121027575806,4361,125
148,-0.0121055394411,4362,125
149,-0.0121082104743,4363,125
150,-0.0121095040813,4364,125
151,-0.0121132014319,4365,125
152,-0.0121155083179,4366,125
153,-0.0121176792309,4367,125
154,-0.0121197095141,4368,125
155,-0.0121206715703,4369,125
156,-0.012121594511,4370,125
157,-0.0121241370216,4371,125
158,-0.0121256327257,4372,125
159,-0.0121263191104,4373,125
160,-0.01212756522,4374,125
161,-0.0121291046962,4375,125
162,-0.0121299074963,4376,125
163,-0.0121305258945,4377,125
164,-0.0121309515089,4378,125
165,-0.0121311843395,4379,125
166,-0.0121312187985,4380,125
167,-0.0121310502291,4381,125
168,-0.0121308891103,4382,125
169,-0.0121300909668,4383,125
170,-0.0121297193691,4384,125
171,-0.0121288150549,4385,125
172,-0.0121282823384,4386,125
173,-0.0121270529926,4387,125
174,-0.0121247926727,4388,125
175,-0.0121230082586,4389,125
176,-0.0121209966019,4390,125
177,-0.0121199069545,4391,125
178,-0.0121162924916,4392,125
179,-0.012113597244,4393,125
180,-0.0121121639386,4394,125
181,-0.0121075203642,4395,125
182,-0.0121041368693,4396,125
183,-0.0121005252004,4397,125
184,-0.0120966853574,4398,125
185,-0.0120946783572,4399,125
186,-0.0120904976502,4400,125
187,-0.012088320218,4401,125
188,-0.0120814563707,4402,125
189,-0.0120790563524,4403,125
190,-0.0120715275407,4404,125
191,-0.0120689086616,4405,125
192,-0.0120635088533,4406,125
193,-0.0120550105348,4407,125
194,-0.0120520722121,4408,125
195,-0.0120460409671,4409,125
196,-0.0120366131887,4410,125
197,-0.0120300818235,4411,125
198,-0.0120233548805,4412,125
199,-0.0120164379478,4413,125
200,-0.0120129100978,4414,125
201,-0.0120093366131,4415,125
202,-0.0119983451441,4416,125
203,-0.0119908004999,4417,125
204,-0.0119830872864,4418,125
205,-0.0119752120227,4419,125
206,-0.0119712129235,4420,125
207,-0.0119630992413,4421,125
208,-0.0119548346847,4422,125
209,-0.0119421649724,4423,125
210,-0.0119378725067,4424,125
211,-0.0119291869923,4425,125
212,-0.0119159156457,4426,125
213,-0.0119069134817,4427,125
214,-0.0118977958336,4428,125
215,-0.0118931941688,4429,125
216,-0.0118885645643,4430,125
217,-0.0118745192885,4431,125
218,-0.0118697863072,4432,125
219,-0.0118602495641,4433,125
220,-0.0118457721546,4434,125
221,-0.0118409032002,4435,125
222,-0.0118261715397,4436,125
223,-0.011816252023,4437,125
224,-0.0118112629279,4438,125
225,-0.011796192266,4439,125
226,-0.0117860613391,4440,125
227,-0.0117758661509,4441,125
228,-0.0117707457393,4442,125
229,-0.0117552941665,4443,125
230,-0.011750113219,4444,125
231,-0.0117449201643,4445,125
232,-0.0117344930768,4446,125
233,-0.0117187537253,4447,125
234,-0.0117134805769,4448,125
235,-0.0116975829005,4449,125
236,-0.0116922585294,4450,125
237,-0.0116762071848,4451,125
238,-0.0116708315909,4452,125
239,-0.0116546237841,4453,125
240,-0.0116491960362,4454,125
241,-0.0116328261793,4455,125
242,-0.0116218402982,4456,125
243,-0.0116107938811,4457,125
244,-0.0115996859968,4458,125
245,-0.0115941064432,4459,125
246,-0.011582897976,4460,125
247,-0.0115772662684,4461,125
248,-0.0115602593869,4462,125
249,-0.011548820883,4463,125
250,-0.0115372966975,4464,125
251,-0.0115315020084,4465,125
252,-0.0115139726549,4466,125
253,-0.0115021588281,4467,125
254,-0.0114902360365,4468,125
255,-0.0114842317998,4469,125
256,-0.0114660356194,4470,125
257,-0.0114537449554,4471,125
258,-0.0114413173869,4472,125
259,-0.0114287436008,4473,125
260,-0.0114160152152,4474,125
261,-0.0114095918834,4475,125
262,-0.0113966194913,4476,125
263,-0.011390067637,4477,125
264,-0.0113701429218,4478,125
265,-0.0113566210493,4479,125
266,-0.0113497851416,4480,125
267,-0.0113289654255,4481,125
268,-0.0113148130476,4482,125
269,-0.011307651177,4483,125
270,-0.0112931532785,4484,125
271,-0.0112784123048,4485,125
272,-0.0112558258697,4486,125
273,-0.0112404376268,4487,125
274,-0.0112326405942,4488,125
275,-0.0112088276073,4489,125
276,-0.01120074559,4490,125
277,-0.0111925899982,4491,125
278,-0.0111676612869,4492,125
279,-0.0111506516114,4493,125
280,-0.011142026633,4494,125
281,-0.0111156562343,4495,125
282,-0.0110976556316,4496,125
283,-0.0110885249451,4497,125
284,-0.0110700018704,4498,125
285,-0.0110415471718,4499,125
286,-0.0110221188515,4500,125
287,-0.0110023198649,4501,125
288,-0.0109821408987,4502,125
289,-0.0109615810215,4503,125
290,-0.0109511548653,4504,125
291,-0.0109300110489,4505,125
292,-0.0109084723517,4506,125
293,-0.0108865359798,4507,125
294,-0.0108754178509,4508,125
295,-0.010852877982,4509,125
296,-0.010829936713,4510,125
297,-0.0107947606593,4511,125
298,-0.0107708033174,4512,125
299,-0.0107464389876,4513,125
300,-0.0107216667384,4514,125
301,-0.0106964893639,4515,125
302,-0.0106709087268,4516,125
303,-0.0106449266896,4517,125
304,-0.0106317875907,4518,125
305,-0.0105917761102,4519,125
306,-0.0105782449245,4520,125
307,-0.0105646140873,4521,125
308,-0.0105231516063,4522,125
309,-0.0105091426522,4523,125
310,-0.0104665597901,4524,125
311,-0.0104377157986,4525,125
312,-0.0104085197672,4526,125
313,-0.0103789800778,4527,125
314,-0.0103640845045,4528,125
315,-0.0103340446949,4529,125
316,-0.0103036845103,4530,125
317,-0.0102575682104,4531,125
318,-0.0102264564484,4532,125
319,-0.0101950662211,4533,125
320,-0.0101634077728,4534,125
321,-0.0101474830881,4535,125
322,-0.0101154502481,4536,125
323,-0.0100831864402,4537,125
324,-0.0100507037714,4538,125
325,-0.0100343851373,4539,125
326,-0.0100016063079,4540,125
327,0.0100579252467,5062,125
328,0.0100947180763,5063,125
329,0.0102032218128,5064,125
330,0.0102387415245,5065,125
331,0.0103087686002,5066,125
332,0.010377401486,5067,125
333,0.0104445843026,5068,125
334,0.0105102695525,5069,125
335,0.0105744032189,5070,125
336,0.0106369359419,5071,125
337,0.0106675857678,5072,125
338,0.0107569992542,5073,125
339,0.0108144311234,5074,125
340,0.010870068334,5075,125
341,0.0108972005546,5076,125
342,0.01095005963,5077,125
343,0.0110257584602,5078,125
344,0.0110737700015,5079,125
345,0.0110970241949,5080,125
346,0.0111197708175,5081,125
347,0.0111637217924,5082,125
348,0.0112257245928,5083,125
349,0.0112643921748,5084,125
350,0.0113008869812,5085,125
351,0.0113351773471,5086,125
352,0.0113672325388,5087,125
353,0.0113970246166,5088,125
354,0.0114110652357,5089,125
355,0.0114374179393,5090,125
356,0.0114725818858,5091,125
357,0.0114831281826,5092,125
358,0.0115112150088,5093,125
359,0.0115269543603,5094,125
360,0.0115339243785,5095,125
361,0.0115402918309,5096,125
362,0.0115557629615,5097,125
363,0.0115630421788,5098,125
364,0.0115678803995,5099,125
365,0.0115693835542,5100,125
366,0.0115702264011,5101,125
367,0.0115677276626,5102,125
368,0.0115655623376,5103,125
369,0.0115553978831,5104,125
370,0.0115455705673,5105,125
371,0.0115333152935,5106,125
372,0.0115186357871,5107,125
373,0.0115103907883,5108,125
374,0.0114820571616,5109,125
375,0.0114714168012,5110,125
376,0.0114483600482,5111,125
377,0.0114229451865,5112,125
378,0.0114093590528,5113,125
379,0.0113651230931,5114,125
380,0.0113327624276,5115,125
381,0.0112981339917,5116,125
382,0.0112612629309,5117,125
383,0.0112221809104,5118,125
384,0.0111809177324,5119,125
385,0.0111375031993,5120,125
386,0.0110919727013,5121,125
387,0.0110443606973,5122,125
388,0.0109947053716,5123,125
389,0.0109430449083,5124,125
390,0.0109164742753,5125,125
391,0.010861877352,5126,125
392,0.0108053777367,5127,125
393,0.0107470145449,5128,125
394,0.0106868371367,5129,125
395,0.0106248874217,5130,125
396,0.0105932625011,5131,125
397,0.0104958657175,5132,125
398,0.0104288887233,5133,125
399,0.0103948060423,5134,125
400,0.0102902576327,5135,125
401,0.0102187078446,5136,125
402,0.0101457377896,5137,125
403,0.0100714024156,5138,125
404,0.010033740662,5139,125
0,-0.0100190956146,4228,126
1,-0.0100550595671,4229,126
2,-0.0101614296436,4230,126
3,-0.0101963728666,4231,126
4,-0.0102996537462,4232,126
5,-0.0103335576132,4233,126
6,-0.0104005802423,4234,126
7,-0.0104665458202,4235,126
8,-0.0104991290718,4236,126
9,-0.0105952750891,4237,126
10,-0.0106580313295,4238,126
11,-0.010719705373,4239,126
12,-0.0107802981511,4240,126
13,-0.010839805007,4241,126
14,-0.0108982231468,4242,126
15,-0.0109270233661,4243,126
16,-0.0109838098288,4244,126
17,-0.0110669434071,4245,126
18,-0.0111210057512,4246,126
19,-0.0111739821732,4247,126
20,-0.0112000629306,4248,126
21,-0.0112258736044,4249,126
22,-0.0113016897812,4250,126
23,-0.0113264247775,4251,126
24,-0.0113990269601,4252,126
25,-0.0114461025223,4253,126
26,-0.0114921247587,4254,126
27,-0.0115147419274,4255,126
28,-0.0115591986105,4256,126
29,-0.0116239534691,4257,126
30,-0.011645029299,4258,126
31,-0.011706745252,4259,126
32,-0.0117466459051,4260,126
33,-0.0117662269622,4261,126
34,-0.0118046635762,4262,126
35,-0.0118421418592,4263,126
36,-0.0118605261669,4264,126
37,-0.0119142802432,4265,126
38,-0.0119489701465,4266,126
39,-0.0119827650487,4267,126
40,-0.0120156798512,4268,126
41,-0.0120477331802,4269,126
42,-0.012078942731,4270,126
43,-0.0121093317866,4271,126
44,-0.0121389171109,4272,126
45,-0.0121534140781,4273,126
46,-0.0121957566589,4274,126
47,-0.0122230527923,4275,126
48,-0.0122496299446,4276,126
49,-0.0122755104676,4277,126
50,-0.0122881969437,4278,126
51,-0.0123130744323,4279,126
52,-0.0123252710328,4280,126
53,-0.0123609304428,4281,126
54,-0.0123839583248,4282,126
55,-0.0124064171687,4283,126
56,-0.0124283339828,4284,126
57,-0.0124497292563,4285,126
58,-0.0124706299976,4286,126
59,-0.0124910604209,4287,126
60,-0.0125011075288,4288,126
61,-0.0125306099653,4289,126
62,-0.012540243566,4290,126
63,-0.0125592248514,4291,126
64,-0.0125870378688,4292,126
65,-0.0125961434096,4293,126
66,-0.0126051716506,4294,126
67,-0.0126318307593,4295,126
68,-0.0126492753625,4296,126
69,-0.0126664862037,4297,126
70,-0.0126834893599,4298,126
71,-0.012700307183,4299,126
72,-0.0127169638872,4300,126
73,-0.0127334818244,4301,126
74,-0.0127498842776,4302,126
75,-0.0127580491826,4303,126
76,-0.0127743221819,4304,126
77,-0.0127986250445,4305,126
78,-0.0128147872165,4306,126
79,-0.0128309428692,4307,126
80,-0.0128390258178,4308,126
81,-0.0128552094102,4309,126
82,-0.0128714339808,4310,126
83,-0.012887718156,4311,126
84,-0.0129040824249,4312,126
85,-0.0129122985527,4313,126
86,-0.0129288099706,4314,126
87,-0.0129538057372,4315,126
88,-0.012970643118,4316,126
89,-0.0129876360297,4317,126
90,-0.0130047984421,4318,126
91,-0.0130221415311,4319,126
92,-0.0130396755412,4320,126
93,-0.0130574144423,4321,126
94,-0.0130753666162,4322,126
95,-0.0130844237283,4323,126
96,-0.0131027083844,4324,126
97,-0.0131212258711,4325,126
98,-0.0131305735558,4326,126
99,-0.0131494496018,4327,126
100,-0.013178226538,4328,126
101,-0.0131879439577,4329,126
102,-0.0132174743339,4330,126
103,-0.0132274441421,4331,126
104,-0.0132475756109,4332,126
105,-0.0132679613307,4333,126
106,-0.0132885985076,4334,126
107,-0.0133200213313,4335,126
108,-0.0133412750438,4336,126
109,-0.0133627671748,4337,126
110,-0.0133844921365,4338,126
111,-0.0133954389021,4339,126
112,-0.0134174991399,4340,126
113,-0.0134397717193,4341,126
114,-0.0134622463956,4342,126
115,-0.0134849129245,4343,126
116,-0.0135077601299,4344,126
117,-0.0135307759047,4345,126
118,-0.0135539453477,4346,126
119,-0.0135655831546,4347,126
120,-0.013600686565,4348,126
121,-0.0136242257431,4349,126
122,-0.0136478543282,4350,126
123,-0.013659697026,4351,126
124,-0.013695307076,4352,126
125,-0.0137071972713,4353,126
126,-0.0137309916317,4354,126
127,-0.0137547878549,4355,126
128,-0.0137785626575,4356,126
129,-0.0138022936881,4357,126
130,-0.0138141354546,4358,126
131,-0.013849530369,4359,126
132,-0.0138729894534,4360,126
133,-0.0138846673071,4361,126
134,-0.0139194587246,4362,126
135,-0.01394241862,4363,126
136,-0.0139538180083,4364,126
137,-0.0139876510948,4365,126
138,-0.0140098705888,4366,126
139,-0.0140208685771,4367,126
140,-0.0140533735976,4368,126
141,-0.0140640344471,4369,126
142,-0.0140850702301,4370,126
143,-0.0141057027504,4371,126
144,-0.0141259040684,4372,126
145,-0.0141358328983,4373,126
146,-0.0141648901626,4374,126
147,-0.0141836153343,4375,126
148,-0.0141927730292,4376,126
149,-0.0142193818465,4377,126
150,-0.0142363645136,4378,126
151,-0.0142527073622,4379,126
152,-0.0142606282607,4380,126
153,-0.0142833506688,4381,126
154,-0.0142975943163,4382,126
155,-0.0143110807985,4383,126
156,-0.0143175302073,4384,126
157,-0.0143298264593,4385,126
158,-0.0143412929028,4386,126
159,-0.0143519053236,4387,126
160,-0.0143616320565,4388,126
161,-0.01437045075,4389,126
162,-0.0143783288077,4390,126
163,-0.0143852476031,4391,126
164,-0.0143911764026,4392,126
165,-0.0143960919231,4393,126
166,-0.0143981622532,4394,126
167,-0.0144015159458,4395,126
168,-0.0144045297056,4396,126
169,-0.0144049860537,4397,126
170,-0.014404672198,4398,126
171,-0.0144039979205,4399,126
172,-0.0144017832354,4400,126
173,-0.0143983932212,4401,126
174,-0.0143962530419,4402,126
175,-0.014388024807,4403,126
176,-0.014381011948,4404,126
177,-0.0143727585673,4405,126
178,-0.0143632516265,4406,126
179,-0.0143580250442,4407,126
180,-0.0143404304981,4408,126
181,-0.0143270911649,4409,126
182,-0.0143124544993,4410,126
183,-0.0142965093255,4411,126
184,-0.0142792509869,4412,126
185,-0.0142606720328,4413,126
186,-0.0142508875579,4414,126
187,-0.0142303183675,4415,126
188,-0.0142195355147,4416,126
189,-0.0141969705001,4417,126
190,-0.0141606237739,4418,126
191,-0.0141478413716,4419,126
192,-0.014107497409,4420,126
193,-0.0140789402649,4421,126
194,-0.0140641639009,4422,126
195,-0.0140336221084,4423,126
196,-0.0140017652884,4424,126
197,-0.0139515278861,4425,126
198,-0.0139341335744,4426,126
199,-0.0138800200075,4427,126
200,-0.013842349872,4428,126
201,-0.0138230416924,4429,126
202,-0.0138034205884,4430,126
203,-0.0137426909059,4431,126
204,-0.0137006724253,4432,126
205,-0.0136574469507,4433,126
206,-0.0136130321771,4434,126
207,-0.0135674513876,4435,126
208,-0.0135207194835,4436,126
209,-0.0134728625417,4437,126
210,-0.0134238982573,4438,126
211,-0.0133990095928,4439,126
212,-0.0133227529004,4440,126
213,-0.0132706202567,4441,126
214,-0.0132174836472,4442,126
215,-0.013163369149,4443,126
216,-0.0131359547377,4444,126
217,-0.0131083047017,4445,126
218,-0.0130239957944,4446,126
219,-0.012966690585,4447,126
220,-0.0129377199337,4448,126
221,-0.0128495851532,4449,126
222,-0.0127898501232,4450,126
223,-0.0127596994862,4451,126
224,-0.0126681784168,4452,126
225,-0.0126373264939,4453,126
226,-0.0125438068062,4454,126
227,-0.0124806975946,4455,126
228,-0.0124170184135,4456,126
229,-0.012384978123,4457,126
230,-0.0122881056741,4458,126
231,-0.0122229466215,4459,126
232,-0.0121902069077,4460,126
233,-0.0121244341135,4461,126
234,-0.0120914084837,4462,126
235,-0.0119918398559,4463,126
236,-0.0119585003704,4464,126
237,-0.0118916286156,4465,126
238,-0.0118245314807,4466,126
239,-0.0117572452873,4467,126
240,-0.0116560449824,4468,126
241,-0.0115884551778,4469,126
242,-0.0115208113566,4470,126
243,-0.0114869810641,4471,126
244,-0.0113855153322,4472,126
245,-0.0113517167047,4473,126
246,-0.0112504577264,4474,126
247,-0.011216766201,4475,126
248,-0.0111495004967,4476,126
249,-0.0110824238509,4477,126
250,-0.01104896795,4478,126
251,-0.0109822414815,4479,126
252,-0.0108826812357,4480,126
253,-0.0108167137951,4481,126
254,-0.0107511067763,4482,126
255,-0.0106858946383,4483,126
256,-0.0106211109087,4484,126
257,-0.0105567844585,4485,126
258,-0.0105248019099,4486,126
259,-0.0104612214491,4487,126
260,-0.0103981727734,4488,126
261,-0.0103046642616,4489,126
262,-0.0102737909183,4490,126
263,-0.0102125108242,4491,126
264,-0.0101821105927,4492,126
265,-0.0101218027994,4493,126
266,-0.010032620281,4494,126
267,-0.010003246367,4495,126
268,-0.0100156981498,4688,126
269,-0.0100579792634,4689,126
270,-0.0100999427959,4690,126
271,-0.0101415524259,4691,126
272,-0.0101622147486,4692,126
