,amplitude,tstep,vfp
0,-0.0100327674299,4698,125
1,-0.0100883571431,4699,125
2,-0.0101438481361,4700,125
3,-0.0101715549827,4701,125
4,-0.0102268885821,4702,125
5,-0.0102821132168,4703,125
6,-0.0103372270241,4704,125
7,-0.0103647420183,4705,125
8,-0.0104471119121,4706,125
9,-0.0105018774047,4707,125
10,-0.0105292117223,4708,125
11,-0.0106110321358,4709,125
12,-0.0106654157862,4710,125
13,-0.01069255732,4711,125
14,-0.0107467398047,4712,125
15,-0.0108277518302,4713,125
16,-0.0108815794811,4714,125
17,-0.0109084369615,4715,125
18,-0.0109887858853,4716,125
19,-0.0110154915601,4717,125
20,-0.0110687846318,4718,125
21,-0.0111219165847,4719,125
22,-0.0111484201625,4720,125
23,-0.0112013006583,4721,125
24,-0.011280301027,4722,125
25,-0.0113327456638,4723,125
26,-0.0113850114867,4724,125
27,-0.0114370919764,4725,125
28,-0.0114889806136,4726,125
29,-0.0115406773984,4727,125
30,-0.0115664517507,4728,125
31,-0.0116434739903,4729,125
32,-0.0116945663467,4730,125
33,-0.0117454491556,4731,125
34,-0.0117708118632,4732,125
35,-0.0117961186916,4733,125
36,-0.0118465693668,4734,125
37,-0.01192182675,4735,125
38,-0.0119717158377,4736,125
39,-0.0119965737686,4737,125
40,-0.0120461136103,4738,125
41,-0.0121199786663,4739,125
42,-0.012168917805,4740,125
43,-0.0122176110744,4741,125
44,-0.0122418655083,4742,125
45,-0.0123142469674,4743,125
46,-0.012362181209,4744,125
47,-0.0123860500753,4745,125
48,-0.0124572617933,4746,125
49,-0.0124808652326,4747,125
50,-0.0125278709456,4748,125
51,-0.0125746037811,4749,125
52,-0.0126210637391,4750,125
53,-0.0126441884786,4751,125
54,-0.012713143602,4752,125
55,-0.012758760713,4753,125
56,-0.0128040891141,4754,125
57,-0.0128491297364,4755,125
58,-0.0128938769922,4756,125
59,-0.0129161402583,4757,125
60,-0.0129824886099,4758,125
61,-0.0130044547841,4759,125
62,-0.0130699044093,4760,125
63,-0.0130915688351,4761,125
64,-0.0131346704438,4762,125
65,-0.0131774665788,4763,125
66,-0.0131987491623,4764,125
67,-0.0132621312514,4765,125
68,-0.0133039969951,4766,125
69,-0.0133455488831,4767,125
70,-0.0133662084118,4768,125
71,-0.0134277092293,4769,125
72,-0.0134683130309,4770,125
73,-0.0135085973889,4771,125
74,-0.0135286198929,4772,125
75,-0.0135684255511,4773,125
76,-0.0136275263503,4774,125
77,-0.0136665245518,4775,125
78,-0.0136859016493,4776,125
79,-0.0137244118378,4777,125
80,-0.0137435439974,4778,125
81,-0.0138004533947,4779,125
82,-0.0138192577288,4780,125
83,-0.0138751817867,4781,125
84,-0.0139120519161,4782,125
85,-0.013948591426,4783,125
86,-0.0139667382464,4784,125
87,-0.01400278043,4785,125
88,-0.0140562206507,4786,125
89,-0.0140914330259,4787,125
90,-0.0141263110563,4788,125
91,-0.0141436224803,4789,125
92,-0.0141779975966,4790,125
93,-0.0142289297655,4791,125
94,-0.0142457392067,4792,125
95,-0.0142791029066,4793,125
96,-0.0143121294677,4794,125
97,-0.0143285160884,4795,125
98,-0.0143771655858,4796,125
99,-0.014393213205,4797,125
100,-0.0144408401102,4798,125
101,-0.014472165145,4799,125
102,-0.0144876986742,4800,125
103,-0.0145185086876,4801,125
104,-0.0145640764385,4802,125
105,-0.0145790912211,4803,125
106,-0.0146088656038,4804,125
107,-0.0146382898092,4805,125
108,-0.0146817732602,4806,125
109,-0.0147103248164,4807,125
110,-0.0147244688123,4808,125
111,-0.0147524913773,4809,125
112,-0.0147801600397,4810,125
113,-0.0148074747995,4811,125
114,-0.0148344347253,4812,125
115,-0.014861036092,4813,125
116,-0.0148872788996,4814,125
117,-0.0149002652615,4815,125
118,-0.0149386823177,4816,125
119,-0.0149513063952,4817,125
120,-0.014988633804,4818,125
121,-0.0150130605325,4819,125
122,-0.0150251369923,4820,125
123,-0.0150608131662,4821,125
124,-0.015072519891,4822,125
125,-0.015095654875,4823,125
126,-0.0151184163988,4824,125
127,-0.0151408053935,4825,125
128,-0.0151628190652,4826,125
129,-0.0151844546199,4827,125
130,-0.015205712989,4828,125
131,-0.0152161987498,4829,125
132,-0.0152368871495,4830,125
133,-0.015267200768,4831,125
134,-0.0152869317681,4832,125
135,-0.0152966519818,4833,125
136,-0.0153252361342,4834,125
137,-0.015343808569,4835,125
138,-0.015361991711,4836,125
139,-0.0153797864914,4837,125
140,-0.0153885381296,4838,125
141,-0.0154057471082,4839,125
142,-0.0154225658625,4840,125
143,-0.0154389906675,4841,125
144,-0.015447055921,4842,125
145,-0.0154628911987,4843,125
146,-0.0154859079048,4844,125
147,-0.0155007597059,4845,125
148,-0.0155152175575,4846,125
149,-0.0155222974718,4847,125
150,-0.0155429495499,4848,125
151,-0.0155496364459,4849,125
152,-0.015569107607,4850,125
153,-0.0155815975741,4851,125
154,-0.0155936954543,4852,125
155,-0.0155995963141,4853,125
156,-0.0156054021791,4854,125
157,-0.015616716817,4855,125
158,-0.0156329609454,4856,125
159,-0.0156433023512,4857,125
160,-0.0156532600522,4858,125
161,-0.0156628340483,4859,125
162,-0.0156674776226,4860,125
163,-0.015680834651,4861,125
164,-0.0156892668456,4862,125
165,-0.0156933404505,4863,125
166,-0.0157050006092,4864,125
167,-0.0157123059034,4865,125
168,-0.0157158225775,4866,125
169,-0.0157258175313,4867,125
170,-0.0157289691269,4868,125
171,-0.0157349966466,4869,125
172,-0.015737876296,4870,125
173,-0.0157433710992,4871,125
174,-0.0157485064119,4872,125
175,-0.0157532952726,4873,125
176,-0.0157577376813,4874,125
177,-0.015763759613,4875,125
178,-0.0157655961812,4876,125
179,-0.0157706141472,4877,125
180,-0.015773544088,4878,125
181,-0.0157761480659,4879,125
182,-0.0157784391195,4880,125
183,-0.015780409798,4881,125
184,-0.0157812777907,4882,125
185,-0.0157827846706,4883,125
186,-0.0157839879394,4884,125
187,-0.015784477815,4885,125
188,-0.0157855004072,4886,125
189,-0.015785695985,4887,125
190,-0.0157858729362,4888,125
191,-0.015785606578,4889,125
192,-0.0157853830606,4890,125
193,-0.0157843008637,4891,125
194,-0.0157832447439,4892,125
195,-0.0157819334418,4893,125
196,-0.0157803613693,4894,125
197,-0.0157785452902,4895,125
198,-0.0157764833421,4896,125
199,-0.0157741811126,4897,125
200,-0.0157729387283,4898,125
201,-0.015770284459,4899,125
202,-0.0157674010843,4900,125
203,-0.0157658755779,4901,125
204,-0.0157609749585,4902,125
205,-0.0157592333853,4903,125
206,-0.0157555956393,4904,125
207,-0.0157517492771,4905,125
208,-0.0157456044108,4906,125
209,-0.0157412625849,4907,125
210,-0.0157367326319,4908,125
211,-0.0157343931496,4909,125
212,-0.0157295875251,4910,125
213,-0.0157220363617,4911,125
214,-0.0157167874277,4912,125
215,-0.0157140996307,4913,125
216,-0.0157085955143,4914,125
217,-0.0157057810575,4915,125
218,-0.0156970974058,4916,125
219,-0.0156911108643,4917,125
220,-0.0156880617142,4918,125
221,-0.0156786851585,4919,125
222,-0.0156722497195,4920,125
223,-0.0156656689942,4921,125
224,-0.0156589467078,4922,125
225,-0.0156555324793,4923,125
226,-0.0156450867653,4924,125
227,-0.0156379565597,4925,125
228,-0.0156306959689,4926,125
229,-0.0156270153821,4927,125
230,-0.0156157845631,4928,125
231,-0.0156119791791,4929,125
232,-0.0156042752787,4930,125
233,-0.0156003767624,4931,125
234,-0.0155885014683,4932,125
235,-0.0155804362148,4933,125
236,-0.0155722526833,4934,125
237,-0.0155639527366,4935,125
238,-0.0155555391684,4936,125
239,-0.0155470110476,4937,125
240,-0.015542704612,4938,125
241,-0.0155296185985,4939,125
242,-0.0155207579955,4940,125
243,-0.0155117865652,4941,125
244,-0.0155072584748,4942,125
245,-0.0154935168102,4943,125
246,-0.0154888825491,4944,125
247,-0.0154795311391,4945,125
248,-0.0154748167843,4946,125
249,-0.0154605116695,4947,125
250,-0.0154508426785,4948,125
251,-0.0154410684481,4949,125
252,-0.0154311908409,4950,125
253,-0.0154212079942,4951,125
254,-0.0154111189768,4952,125
255,-0.0154009284452,4953,125
256,-0.0153906345367,4954,125
257,-0.0153854489326,4955,125
258,-0.0153697375208,4956,125
259,-0.0153591353446,4957,125
260,-0.0153484325856,4958,125
261,-0.0153430439532,4959,125
262,-0.0153321875259,4960,125
263,-0.0153212314472,4961,125
264,-0.0153157161549,4962,125
265,-0.0152990184724,4963,125
266,-0.0152934025973,4964,125
267,-0.0152821000665,4965,125
268,-0.0152706988156,4966,125
269,-0.0152591988444,4967,125
270,-0.0152417710051,4968,125
271,-0.0152359148487,4969,125
272,-0.0152241317555,4970,125
273,-0.0152122555301,4971,125
274,-0.0151942688972,4972,125
275,-0.0151821663603,4973,125
276,-0.0151760820299,4974,125
277,-0.0151699753478,4975,125
278,-0.0151515267789,4976,125
279,-0.0151453334838,4977,125
280,-0.0151266334578,4978,125
281,-0.0151140652597,4979,125
282,-0.0151077508926,4980,125
283,-0.0150886941701,4981,125
284,-0.0150758987293,4982,125
285,-0.0150694726035,4983,125
286,-0.0150565672666,4984,125
287,-0.0150435958058,4985,125
288,-0.01502401568,4986,125
289,-0.0150174563751,4987,125
290,-0.0150042949244,4988,125
291,-0.0149910738692,4989,125
292,-0.0149778006598,4990,125
293,-0.0149644734338,4991,125
294,-0.014951097779,4992,125
295,-0.0149443931878,4993,125
296,-0.0149242151529,4994,125
297,-0.0149107128382,4995,125
298,-0.0148971760646,4996,125
299,-0.0148836066946,4997,125
300,-0.0148700084537,4998,125
301,-0.0148563841358,4999,125
302,-0.0148427393287,5000,125
303,-0.0148290768266,5001,125
304,-0.0148222390562,5002,125
305,-0.014801710844,5003,125
306,-0.0147948628291,5004,125
307,-0.0147880157456,5005,125
308,-0.0147674689069,5006,125
309,-0.014760620892,5007,125
310,-0.014740084298,5008,125
311,-0.0147264059633,5009,125
312,-0.0147195700556,5010,125
313,-0.0146990912035,5011,125
314,-0.0146922757849,5012,125
315,-0.0146718630567,5013,125
316,-0.0146582890302,5014,125
317,-0.0146515155211,5015,125
318,-0.0146312424913,5016,125
319,-0.0146177764982,5017,125
320,-0.0146043524146,5018,125
321,-0.0145976580679,5019,125
322,-0.0145843029022,5020,125
323,-0.0145710026845,5021,125
324,-0.0145643707365,5022,125
325,-0.0145445624366,5023,125
326,-0.0145379891619,5024,125
327,-0.0145183634013,5025,125
328,-0.0145053640008,5026,125
329,-0.0144924297929,5027,125
330,-0.0144859906286,5028,125
331,-0.0144667830318,5029,125
332,-0.0144540723413,5030,125
333,-0.0144414398819,5031,125
334,-0.0144351562485,5032,125
335,-0.0144164236262,5033,125
336,-0.0144102210179,5034,125
337,-0.0143978828564,5035,125
338,-0.014391746372,5036,125
339,-0.0143734691665,5037,125
340,-0.0143613982946,5038,125
341,-0.0143494224176,5039,125
342,-0.0143375387415,5040,125
343,-0.0143257509917,5041,125
344,-0.0143140573055,5042,125
345,-0.0143024623394,5043,125
346,-0.0142909651622,5044,125
347,-0.0142852533609,5045,125
348,-0.0142682660371,5046,125
349,-0.0142626538873,5047,125
350,-0.0142459673807,5048,125
351,-0.0142404548824,5049,125
352,-0.0142295062542,5050,125
353,-0.0142186582088,5051,125
354,-0.0142079107463,5052,125
355,-0.014197264798,5053,125
356,-0.0141867166385,5054,125
357,-0.0141762709245,5055,125
358,-0.0141710853204,5056,125
359,-0.0141607876867,5057,125
360,-0.0141455261037,5058,125
361,-0.0141354752705,5059,125
362,-0.0141304871067,5060,125
363,-0.0141205806285,5061,125
364,-0.0141059029847,5062,125
365,-0.0141010573134,5063,125
366,-0.014086663723,5064,125
367,-0.0140819111839,5065,125
368,-0.0140724796802,5066,125
369,-0.0140631366521,5067,125
370,-0.0140538839623,5068,125
371,-0.0140447216108,5069,125
372,-0.0140356468037,5070,125
373,-0.0140266586095,5071,125
374,-0.0140177579597,5072,125
375,-0.0140089401975,5073,125
376,-0.0140002043918,5074,125
377,-0.0139958681539,5075,125
378,-0.0139829786494,5076,125
379,-0.0139744868502,5077,125
380,-0.0139702688903,5078,125
381,-0.0139577342197,5079,125
382,-0.0139535926282,5080,125
383,-0.0139453681186,5081,125
384,-0.0139372162521,5082,125
385,-0.0139291388914,5083,125
386,-0.0139211332425,5084,125
387,-0.0139131965116,5085,125
388,-0.0139053296298,5086,125
389,-0.0138975288719,5087,125
390,-0.0138897961006,5088,125
391,-0.0138821294531,5089,125
392,-0.0138745252043,5090,125
393,-0.0138669870794,5091,125
394,-0.0138632403687,5092,125
395,-0.0138520924374,5093,125
396,-0.0138447377831,5094,125
397,-0.0138410814106,5095,125
398,-0.0138374408707,5096,125
399,-0.0138266067952,5097,125
400,-0.0138194533065,5098,125
401,-0.0138123566285,5099,125
402,-0.0138053130358,5100,125
403,-0.0138018131256,5101,125
404,-0.0137913906947,5102,125
405,-0.0137845054269,5103,125
406,-0.0137810837477,5104,125
407,-0.0137708894908,5105,125
408,-0.0137641550973,5106,125
409,-0.0137574700639,5107,125
410,-0.0137508297339,5108,125
411,-0.0137475272641,5109,125
412,-0.0137409539893,5110,125
413,-0.0137376841158,5111,125
414,-0.013727940619,5112,125
415,-0.0137247145176,5113,125
416,-0.0137150939554,5114,125
417,-0.0137119069695,5115,125
418,-0.0137055609375,5116,125
419,-0.01369611267,5117,125
420,-0.0136898551136,5118,125
421,-0.0136836301535,5119,125
422,-0.0136774368584,5120,125
423,-0.0136712733656,5121,125
424,-0.0136651396751,5122,125
425,-0.0136620802805,5123,125
426,-0.013652944006,5124,125
427,-0.0136499088258,5125,125
428,-0.0136468801647,5126,125
429,-0.0136408358812,5127,125
430,-0.0136348064989,5128,125
431,-0.0136257912964,5129,125
432,-0.0136197945103,5130,125
433,-0.0136138070375,5131,125
434,-0.0136078232899,5132,125
435,-0.013601844199,5133,125
436,-0.0135988527909,5134,125
437,-0.0135898776352,5135,125
438,-0.0135838845745,5136,125
439,-0.0135778812692,5137,125
440,-0.013571863994,5138,125
441,-0.0135688465089,5139,125
442,-0.0135627985001,5140,125
443,-0.0135597661138,5141,125
444,-0.0135536799207,5142,125
445,-0.0135475648567,5143,125
446,-0.0135383214802,5144,125
447,-0.0135352211073,5145,125
448,-0.0135258520022,5146,125
449,-0.0135227050632,5147,125
450,-0.0135131785646,5148,125
451,-0.0135099729523,5149,125
452,-0.0135035142303,5150,125
453,-0.013493694365,5151,125
454,-0.0134870531037,5152,125
455,-0.0134803289548,5153,125
456,-0.013476934284,5154,125
457,-0.0134700760245,5155,125
458,-0.0134631209075,5156,125
459,-0.0134560633451,5157,125
460,-0.0134524935856,5158,125
461,-0.0134416148067,5159,125
462,-0.0134342107922,5160,125
463,-0.0134266801178,5161,125
464,-0.0134228654206,5162,125
465,-0.0134112089872,5163,125
466,-0.0134032582864,5164,125
467,-0.013395152986,5165,125
468,-0.0133868874982,5166,125
469,-0.0133784553036,5167,125
470,-0.0133698489517,5168,125
471,-0.0133654791862,5169,125
472,-0.0133520923555,5170,125
473,-0.0133475344628,5171,125
474,-0.0133429262787,5172,125
475,-0.0133288018405,5173,125
476,-0.0133239896968,5174,125
477,-0.013309228234,5175,125
478,-0.0132991112769,5176,125
479,-0.0132887614891,5177,125
480,-0.013278177008,5178,125
481,-0.0132673485205,5179,125
482,-0.0132618406788,5180,125
483,-0.0132449343801,5181,125
484,-0.0132333356887,5182,125
485,-0.0132214697078,5183,125
486,-0.0132093280554,5184,125
487,-0.0132031533867,5185,125
488,-0.0131905898452,5186,125
489,-0.0131777320057,5187,125
490,-0.0131645798683,5188,125
491,-0.0131578920409,5189,125
492,-0.0131373666227,5190,125
493,-0.0131232934073,5191,125
494,-0.0131089007482,5192,125
495,-0.0130941849202,5193,125
496,-0.0130791431293,5194,125
497,-0.0130637660623,5195,125
498,-0.0130480509251,5196,125
499,-0.0130319939926,5197,125
500,-0.0130155906081,5198,125
501,-0.0129988351837,5199,125
502,-0.0129817230627,5200,125
503,-0.0129730338231,5201,125
504,-0.012955381535,5202,125
505,-0.0129373660311,5203,125
506,-0.0129189807922,5204,125
507,-0.0129002220929,5205,125
508,-0.0128810899332,5206,125
509,-0.012871382758,5207,125
510,-0.0128416894004,5208,125
511,-0.0128214154392,5209,125
512,-0.0128007577732,5210,125
513,-0.0127902841195,5211,125
514,-0.0127690425143,5212,125
515,-0.0127364480868,5213,125
516,-0.0127142257988,5214,125
517,-0.0126916123554,5215,125
518,-0.0126801570877,5216,125
519,-0.0126686021686,5217,125
520,-0.0126333413646,5218,125
521,-0.0126093374565,5219,125
522,-0.0125849330798,5220,125
523,-0.0125725828111,5221,125
524,-0.012547579594,5222,125
525,-0.0125221768394,5223,125
526,-0.0124963745475,5224,125
527,-0.0124569199979,5225,125
528,-0.0124301165342,5226,125
529,-0.0124029144645,5227,125
530,-0.0123753128573,5228,125
531,-0.0123473126441,5229,125
532,-0.0123331639916,5230,125
533,-0.0123045677319,5231,125
534,-0.0122755728662,5232,125
535,-0.0122461849824,5233,125
536,-0.0122164031491,5234,125
537,-0.012186229229,5235,125
538,-0.0121556632221,5236,125
539,-0.0121247060597,5237,125
540,-0.0120933614671,5238,125
541,-0.012061628513,5239,125
542,-0.0120295090601,5240,125
543,-0.0119970059022,5241,125
544,-0.0119641227648,5242,125
545,-0.011930857785,5243,125
546,-0.0118972146884,5244,125
547,-0.0118802506477,5245,125
548,-0.0118460431695,5246,125
549,-0.0118287988007,5247,125
550,-0.0117765078321,5248,125
551,-0.0117411836982,5249,125
552,-0.0117054916918,5250,125
553,-0.0116875078529,5251,125
554,-0.0116512672976,5252,125
555,-0.0115962279961,5253,125
556,-0.0115590840578,5254,125
557,-0.0115215824917,5255,125
558,-0.0115026980639,5256,125
559,-0.0114455120638,5257,125
560,-0.0114069469273,5258,125
561,-0.0113680344075,5259,125
562,-0.0113287698478,5260,125
563,-0.0113090090454,5261,125
564,-0.0112891597673,5262,125
565,-0.0112291006371,5263,125
566,-0.0111886346713,5264,125
567,-0.0111682740971,5265,125
568,-0.01110668201,5266,125
569,-0.0110651999712,5267,125
570,-0.0110443327576,5268,125
571,-0.0109812319279,5269,125
572,-0.0109387468547,5270,125
573,-0.0108959348872,5271,125
574,-0.010852791369,5272,125
575,-0.0108093218878,5273,125
576,-0.010787463747,5274,125
577,-0.0107214022428,5275,125
578,-0.0106992181391,5276,125
579,-0.0106546133757,5277,125
580,-0.010632189922,5278,125
581,-0.0105644343421,5279,125
582,-0.0105188665912,5280,125
583,-0.0104729784653,5281,125
584,-0.010426774621,5282,125
585,-0.0103802559897,5283,125
586,-0.0103568788618,5284,125
587,-0.0103098871186,5285,125
588,-0.0102388132364,5286,125
589,-0.0102149657905,5287,125
590,-0.0101670371369,5288,125
591,-0.0101187964901,5289,125
592,-0.0100458571687,5290,125
593,-0.0100213894621,5291,125
0,-0.0100180385634,4699,126
1,-0.0100498236716,4700,126
2,-0.0101449470967,4701,126
3,-0.01017657388,4702,126
4,-0.0102397035807,4703,126
5,-0.0102712046355,4704,126
6,-0.0103654395789,4705,126
7,-0.0103967590258,4706,126
8,-0.0104592554271,4707,126
9,-0.0105526326224,4708,126
10,-0.01058365684,4709,126
11,-0.0106764137745,4710,126
12,-0.0107379788533,4711,126
13,-0.010768677108,4712,126
14,-0.0108604291454,4713,126
15,-0.0109213013202,4714,126
16,-0.0109819294885,4715,126
17,-0.0110121490434,4716,126
18,-0.0110723981634,4717,126
19,-0.0111024240032,4718,126
20,-0.0111921075732,4719,126
21,-0.0112218670547,4720,126
22,-0.0113107264042,4721,126
23,-0.0113696111366,4722,126
24,-0.0113989431411,4723,126
25,-0.011486495845,4724,126
26,-0.0115444865078,4725,126
27,-0.0115733649582,4726,126
28,-0.0116595299914,4727,126
29,-0.0116880917922,4728,126
30,-0.0117732873186,4729,126
31,-0.011829668656,4730,126
32,-0.0118577331305,4731,126
33,-0.011913604103,4732,126
34,-0.0119691286236,4733,126
35,-0.0119967600331,4734,126
36,-0.0120791150257,4735,126
37,-0.012133567594,4736,126
38,-0.0121876513585,4737,126
39,-0.0122413616627,4738,126
40,-0.0122680766508,4739,126
41,-0.0123476460576,4740,126
42,-0.0123739764094,4741,126
43,-0.0124263437465,4742,126
44,-0.0124783171341,4743,126
45,-0.0125298928469,4744,126
46,-0.0125810662284,4745,126
47,-0.0126318335533,4746,126
48,-0.0126821892336,4747,126
49,-0.0127321304753,4748,126
50,-0.0127816535532,4749,126
51,-0.0128307538107,4750,126
52,-0.0128794284537,4751,126
53,-0.0129276756197,4752,126
54,-0.0129516366869,4753,126
55,-0.0129992347211,4754,126
56,-0.0130698122084,4755,126
57,-0.0131163122132,4756,126
58,-0.0131393978372,4757,126
59,-0.0131852338091,4758,126
60,-0.0132306199521,4759,126
61,-0.0132755590603,4760,126
62,-0.0133200455457,4761,126
63,-0.0133640803397,4762,126
64,-0.013385925442,4763,126
65,-0.0134507790208,4764,126
66,-0.0134934419766,4765,126
67,-0.0135356439278,4766,126
68,-0.0135773839429,4767,126
69,-0.0136186620221,4768,126
70,-0.0136594763026,4769,126
71,-0.0136998258531,4770,126
72,-0.0137397106737,4771,126
73,-0.0137791316956,4772,126
74,-0.013818083331,4773,126
75,-0.0138373849913,4774,126
76,-0.0138756381348,4775,126
77,-0.0139321442693,4776,126
78,-0.0139507455751,4777,126
79,-0.0139692323282,4778,126
80,-0.0140239913017,4779,126
