,amplitude,tstep,vfp
0,-0.0100565543398,4342,125
1,-0.0101746832952,4343,125
2,-0.0102926343679,4344,125
3,-0.0104104038328,4345,125
4,-0.0105279861018,4346,125
5,-0.0106453727931,4347,125
6,-0.0107039911672,4348,125
7,-0.0108210742474,4349,125
8,-0.0109963053837,4350,125
9,-0.0111128529534,4351,125
10,-0.0112291760743,4352,125
11,-0.01128725335,4353,125
12,-0.0114032290876,4354,125
13,-0.0114611294121,4355,125
14,-0.0116344597191,4356,125
15,-0.0117497015744,4357,125
16,-0.0118646882474,4358,125
17,-0.0119794141501,4359,125
18,-0.0120938727632,4360,125
19,-0.0122080584988,4361,125
20,-0.0123219667003,4362,125
21,-0.012435592711,4363,125
22,-0.012548928149,4364,125
23,-0.012605487369,4365,125
24,-0.012774717994,4366,125
25,-0.0128871584311,4367,125
26,-0.0129992906004,4368,125
27,-0.0130552416667,4369,125
28,-0.0131111098453,4370,125
29,-0.0132782422006,4371,125
30,-0.0133892577142,4372,125
31,-0.0134999426082,4373,125
32,-0.0136102903634,4374,125
33,-0.0136653389782,4375,125
34,-0.0137751773,4376,125
35,-0.0138846701011,4377,125
36,-0.0140482485294,4378,125
37,-0.0141568565741,4379,125
38,-0.0142651004717,4380,125
39,-0.0143729802221,4381,125
40,-0.0144804911688,4382,125
41,-0.0145876249298,4383,125
42,-0.0146410502493,4384,125
43,-0.0147476177663,4385,125
44,-0.014853797853,4386,125
45,-0.0149067435414,4387,125
46,-0.0150123406202,4388,125
47,-0.0151175437495,4389,125
48,-0.0152223492041,4390,125
49,-0.01532675419,4391,125
50,-0.0154825979844,4392,125
51,-0.0155859803781,4393,125
52,-0.0156889483333,4394,125
53,-0.0157914981246,4395,125
54,-0.0158936250955,4396,125
55,-0.0159953292459,4397,125
56,-0.0160966012627,4398,125
57,-0.0161470770836,4399,125
58,-0.0162476990372,4400,125
59,-0.0163478832692,4401,125
60,-0.0164476260543,4402,125
61,-0.0165469273925,4403,125
62,-0.0165964104235,4404,125
63,-0.0167441815138,4405,125
64,-0.0168421305716,4406,125
65,-0.0169396195561,4407,125
66,-0.0170366466045,4408,125
67,-0.0170849878341,4409,125
68,-0.0172293093055,4410,125
69,-0.0172771811485,4411,125
70,-0.0173725690693,4412,125
71,-0.0175147540867,4413,125
72,-0.0175619125366,4414,125
73,-0.0176558624953,4415,125
74,-0.0177026540041,4416,125
75,-0.0177958756685,4417,125
76,-0.0178886018693,4418,125
77,-0.0180267710239,4419,125
78,-0.0180725771934,4420,125
79,-0.0182092431933,4421,125
80,-0.0182545464486,4422,125
81,-0.0183896906674,4423,125
82,-0.0184791460633,4424,125
83,-0.0185680855066,4425,125
84,-0.0186123624444,4426,125
85,-0.0187005195767,4427,125
86,-0.0188317708671,4428,125
87,-0.0188752580434,4429,125
88,-0.0189618300647,4430,125
89,-0.019004913047,4431,125
90,-0.0191333610564,4432,125
91,-0.0192183125764,4433,125
92,-0.0193027164787,4434,125
93,-0.019386574626,4435,125
94,-0.0194698758423,4436,125
95,-0.0195526182652,4437,125
96,-0.0196347981691,4438,125
97,-0.0197164099663,4439,125
98,-0.0197974573821,4440,125
99,-0.0198779292405,4441,125
100,-0.0199578255415,4442,125
101,-0.0200371388346,4443,125
102,-0.0200765766203,4444,125
103,-0.0201158672571,4445,125
104,-0.0201940052211,4446,125
105,-0.020271550864,4447,125
106,-0.0203867480159,4448,125
107,-0.0204627942294,4449,125
108,-0.0205382294953,4450,125
109,-0.0206130556762,4451,125
110,-0.0206872653216,4452,125
111,-0.020724138245,4453,125
112,-0.0207974184304,4454,125
113,-0.0208700690418,4455,125
114,-0.0209778659046,4456,125
115,-0.0210489332676,4457,125
116,-0.0211193617433,4458,125
117,-0.0211891476065,4459,125
118,-0.0212238002568,4460,125
119,-0.0212582871318,4461,125
120,-0.0213607680053,4462,125
121,-0.0214282646775,4463,125
122,-0.0214617662132,4464,125
123,-0.0215282663703,4465,125
124,-0.0216267667711,4466,125
125,-0.0216915886849,4467,125
126,-0.0217237472534,4468,125
127,-0.0218191985041,4469,125
128,-0.0218819752336,4470,125
129,-0.0219440665096,4471,125
130,-0.0219748485833,4472,125
131,-0.0220358967781,4473,125
132,-0.0221261568367,4474,125
133,-0.0221558921039,4475,125
134,-0.0221854504198,4476,125
135,-0.0222730636597,4477,125
136,-0.0223305858672,4478,125
137,-0.0223590750247,4479,125
138,-0.0224434733391,4480,125
139,-0.0224988386035,4481,125
140,-0.0225534774363,4482,125
141,-0.0226073898375,4483,125
142,-0.0226605664939,4484,125
143,-0.0226868819445,4485,125
144,-0.0227389615029,4486,125
145,-0.0227902997285,4487,125
146,-0.0228659193963,4488,125
147,-0.02291540429,4489,125
148,-0.0229398664087,4490,125
149,-0.0229641422629,4491,125
150,-0.023035844788,4492,125
151,-0.0230827089399,4493,125
152,-0.0231288168579,4494,125
153,-0.0231515876949,4495,125
154,-0.0232187658548,4496,125
155,-0.0232625994831,4497,125
156,-0.0233056806028,4498,125
157,-0.0233479943126,4499,125
158,-0.023389544338,4500,125
159,-0.0234303306788,4501,125
160,-0.0234504360706,4502,125
161,-0.0235096011311,4503,125
162,-0.0235480871052,4504,125
163,-0.0235670432448,4505,125
164,-0.0236043725163,4506,125
165,-0.0236409343779,4507,125
166,-0.0236589256674,4508,125
167,-0.0237117446959,4509,125
168,-0.023745989427,4510,125
169,-0.0237794630229,4511,125
170,-0.0237959120423,4512,125
171,-0.0238440930843,4513,125
172,-0.0238752514124,4514,125
173,-0.0238905437291,4515,125
174,-0.0239352490753,4516,125
175,-0.0239497665316,4517,125
176,-0.0239782221615,4518,125
177,-0.0240059066564,4519,125
178,-0.0240328181535,4520,125
179,-0.0240459851921,4521,125
180,-0.0240843314677,4522,125
181,-0.0241089370102,4523,125
182,-0.0241327695549,4524,125
183,-0.0241558402777,4525,125
184,-0.0241670869291,4526,125
185,-0.0241890046746,4527,125
186,-0.02422044985,4528,125
187,-0.0242404602468,4529,125
188,-0.0242597088218,4530,125
189,-0.0242781918496,4531,125
190,-0.0242871511728,4532,125
191,-0.0243044923991,4533,125
192,-0.0243290923536,4534,125
193,-0.0243369154632,4535,125
194,-0.0243519935757,4536,125
195,-0.0243663173169,4537,125
196,-0.0243798904121,4538,125
197,-0.0243863984942,4539,125
198,-0.0244047958404,4540,125
199,-0.0244161300361,4541,125
200,-0.0244267210364,4542,125
201,-0.024436565116,4543,125
202,-0.0244412105531,4544,125
203,-0.0244540423155,4545,125
204,-0.0244616735727,4546,125
205,-0.0244685746729,4547,125
206,-0.0244717523456,4548,125
207,-0.0244775563478,4549,125
208,-0.0244826320559,4550,125
209,-0.0244869850576,4551,125
210,-0.0244906116277,4552,125
211,-0.0244921557605,4553,125
212,-0.0244947038591,4554,125
213,-0.0244965348393,4555,125
214,-0.0244976505637,4556,125
215,-0.0244980566204,4557,125
216,-0.0244977567345,4558,125
217,-0.0244959779084,4559,125
218,-0.0244939178228,4560,125
219,-0.0244926232845,4561,125
220,-0.0244877040386,4562,125
221,-0.0244835522026,4563,125
222,-0.0244812201709,4564,125
223,-0.0244760401547,4565,125
224,-0.0244701746851,4566,125
225,-0.0244636312127,4567,125
226,-0.0244601033628,4568,125
227,-0.0244525391608,4569,125
228,-0.0244399402291,4570,125
229,-0.0244307052344,4571,125
230,-0.0244208071381,4572,125
231,-0.0244102459401,4573,125
232,-0.0243990309536,4574,125
233,-0.0243931803852,4575,125
234,-0.0243746526539,4576,125
235,-0.0243614949286,4577,125
236,-0.0243476945907,4578,125
237,-0.0243332646787,4579,125
238,-0.0243181996047,4580,125
239,-0.0243104305118,4581,125
240,-0.0243025068194,4582,125
241,-0.0242778081447,4583,125
242,-0.0242605693638,4584,125
243,-0.0242427252233,4585,125
244,-0.024233572185,4586,125
245,-0.0242052152753,4587,125
246,-0.0241855625063,4588,125
247,-0.024175517261,4589,125
248,-0.0241549853235,4590,125
249,-0.0241230912507,4591,125
250,-0.02410110645,4592,125
251,-0.0240785554051,4593,125
252,-0.0240670666099,4594,125
253,-0.0240317620337,4595,125
254,-0.0240197163075,4596,125
255,-0.0239952132106,4597,125
256,-0.0239701643586,4598,125
257,-0.0239445790648,4599,125
258,-0.0239184610546,4600,125
259,-0.0238918140531,4601,125
260,-0.0238646455109,4602,125
261,-0.0238369628787,4603,125
262,-0.0238087717444,4604,125
263,-0.0237944871187,4605,125
264,-0.0237655434757,4606,125
265,-0.0237212069333,4607,125
266,-0.0236910451204,4608,125
267,-0.0236757863313,4609,125
268,-0.0236449092627,4610,125
269,-0.0236135683954,4611,125
270,-0.0235817674547,4612,125
271,-0.023549510166,4613,125
272,-0.0235168095678,4614,125
273,-0.02348366566,4615,125
274,-0.0234500896186,4616,125
275,-0.023416088894,4617,125
276,-0.0233816690743,4618,125
277,-0.0233468320221,4619,125
278,-0.0233115945011,4620,125
279,-0.0232759583741,4621,125
280,-0.023257991299,4622,125
281,-0.0232035145164,4623,125
282,-0.0231667216867,4624,125
283,-0.0231481865048,4625,125
284,-0.0231108367443,4626,125
285,-0.0230731330812,4627,125
286,-0.0230541490018,4628,125
287,-0.0229966714978,4629,125
288,-0.0229579284787,4630,125
289,-0.0229188520461,4631,125
290,-0.0228991936892,4632,125
291,-0.0228397343308,4633,125
292,-0.0227997023612,4634,125
293,-0.0227593705058,4635,125
294,-0.0227390918881,4636,125
295,-0.0226778201759,4637,125
296,-0.0226366184652,4638,125
297,-0.0225951392204,4639,125
298,-0.0225533917546,4640,125
299,-0.0225324202329,4641,125
300,-0.0225113816559,4642,125
301,-0.0224478915334,4643,125
302,-0.0224052537233,4644,125
303,-0.0223838444799,4645,125
304,-0.0223192721605,4646,125
305,-0.0222759414464,4647,125
306,-0.0222323928028,4648,125
307,-0.0221886318177,4649,125
308,-0.022166673094,4650,125
309,-0.0221226066351,4651,125
310,-0.0220783483237,4652,125
311,-0.0220116041601,4653,125
312,-0.02196688205,4654,125
313,-0.0219219885767,4655,125
314,-0.02189947851,4656,125
315,-0.0218543373048,4657,125
316,-0.0218317061663,4658,125
317,-0.0217635892332,4659,125
318,-0.0217179991305,4660,125
319,-0.0216951519251,4661,125
320,-0.0216264072806,4662,125
321,-0.0215804204345,4663,125
322,-0.021557379514,4664,125
323,-0.0215112119913,4665,125
324,-0.021441757679,4666,125
325,-0.021395329386,4667,125
326,-0.0213720798492,4668,125
327,-0.021302189678,4669,125
328,-0.0212554931641,4670,125
329,-0.0212321113795,4671,125
330,-0.0211852993816,4672,125
331,-0.0211384184659,4673,125
332,-0.0210914742202,4674,125
333,-0.0210679788142,4675,125
334,-0.0210209507495,4676,125
335,-0.0209503229707,4677,125
336,-0.02090318501,4678,125
337,-0.0208560135216,4679,125
338,-0.0208324156702,4680,125
339,-0.0207615885884,4681,125
340,-0.0207379721105,4682,125
341,-0.0206907279789,4683,125
342,-0.0206198487431,4684,125
343,-0.0205725952983,4685,125
344,-0.0205489676446,4686,125
345,-0.0205017253757,4687,125
346,-0.0204544980079,4688,125
347,-0.0204072892666,4689,125
348,-0.0203836951405,4690,125
349,-0.0203129611909,4691,125
350,-0.0202893987298,4692,125
351,-0.0202187784016,4693,125
352,-0.0201717577875,4694,125
353,-0.0201247949153,4695,125
354,-0.0200778897852,4696,125
355,-0.0200310498476,4697,125
356,-0.0199842844158,4698,125
357,-0.0199375953525,4699,125
358,-0.0198909901083,4700,125
359,-0.0198444724083,4701,125
360,-0.0198212508112,4702,125
361,-0.0197748783976,4703,125
362,-0.0197286065668,4704,125
363,-0.0196824483573,4705,125
364,-0.0196364037693,4706,125
365,-0.0195904802531,4707,125
366,-0.0195446815342,4708,125
367,-0.0195218306035,4709,125
368,-0.019453490153,4710,125
369,-0.0194081068039,4711,125
370,-0.0193628761917,4712,125
371,-0.0193177983165,4713,125
372,-0.019272884354,4714,125
373,-0.0192504860461,4715,125
374,-0.0191835556179,4716,125
375,-0.0191613379866,4717,125
376,-0.0191170312464,4718,125
377,-0.0190729126334,4719,125
378,-0.0190509259701,4720,125
379,-0.0189852621406,4721,125
380,-0.0189417432994,4722,125
381,-0.0189200602472,4723,125
382,-0.0188553370535,4724,125
383,-0.0188124645501,4725,125
384,-0.0187911130488,4726,125
385,-0.0187274068594,4727,125
386,-0.0186852347106,4728,125
387,-0.0186642389745,4729,125
388,-0.0186224337667,4730,125
389,-0.0185602027923,4731,125
390,-0.0185395870358,4732,125
391,-0.0184985566884,4733,125
392,-0.0184781402349,4734,125
393,-0.0184173025191,4735,125
394,-0.0183971635997,4736,125
395,-0.0183570981026,4737,125
396,-0.0182975362986,4738,125
397,-0.018277829513,4739,125
398,-0.0182191617787,4740,125
399,-0.0181997530162,4741,125
400,-0.0181611757725,4742,125
401,-0.018122907728,4743,125
402,-0.0180849581957,4744,125
403,-0.018047330901,4745,125
404,-0.0180100295693,4746,125
405,-0.0179730635136,4747,125
406,-0.0179364327341,4748,125
407,-0.0179001428187,4749,125
408,-0.0178821254522,4750,125
409,-0.0178286004812,4751,125
410,-0.0177933573723,4752,125
411,-0.0177584756166,4753,125
412,-0.017723955214,4754,125
413,-0.0176898036152,4755,125
414,-0.0176728665829,4756,125
415,-0.0176226068288,4757,125
416,-0.0175895765424,4758,125
417,-0.0175732038915,4759,125
418,-0.0175407435745,4760,125
419,-0.0174927841872,4761,125
420,-0.0174769926816,4762,125
421,-0.0174612980336,4763,125
422,-0.0174148119986,4764,125
423,-0.0173843167722,4765,125
424,-0.0173542238772,4766,125
425,-0.0173245389014,4767,125
426,-0.0172952581197,4768,125
427,-0.0172663908452,4769,125
428,-0.0172379352152,4770,125
429,-0.0172098949552,4771,125
430,-0.0171822737902,4772,125
431,-0.0171550679952,4773,125
432,-0.0171416252851,4774,125
433,-0.0171150546521,4775,125
434,-0.0170759949833,4776,125
435,-0.0170631855726,4777,125
436,-0.0170378908515,4778,125
437,-0.0170130245388,4779,125
438,-0.0170007552952,4780,125
439,-0.0169645864516,4781,125
440,-0.0169410146773,4782,125
441,-0.0169293917716,4783,125
442,-0.0168951693922,4784,125
443,-0.0168728958815,4785,125
444,-0.0168510638177,4786,125
445,-0.0168296582997,4787,125
446,-0.0168086942285,4788,125
447,-0.0167881660163,4789,125
448,-0.0167780648917,4790,125
449,-0.016758190468,4791,125
450,-0.0167387481779,4792,125
451,-0.0167197454721,4793,125
452,-0.0167104080319,4794,125
453,-0.0166920591146,4795,125
454,-0.0166741404682,4796,125
455,-0.0166480802,4797,125
456,-0.0166396070272,4798,125
457,-0.0166148394346,4799,125
458,-0.0165988672525,4800,125
459,-0.0165833216161,4801,125
460,-0.016568204388,4802,125
461,-0.0165608059615,4803,125
462,-0.0165392495692,4804,125
463,-0.0165254063904,4805,125
464,-0.0165186431259,4806,125
465,-0.0164989829063,4807,125
466,-0.016492638737,4808,125
467,-0.0164802595973,4809,125
468,-0.016474224627,4810,125
469,-0.0164624657482,4811,125
470,-0.0164455976337,4812,125
471,-0.0164348613471,4813,125
472,-0.0164245273918,4814,125
473,-0.0164195094258,4815,125
474,-0.016405057162,4816,125
475,-0.0163959171623,4817,125
476,-0.0163871720433,4818,125
477,-0.0163788124919,4819,125
478,-0.0163708403707,4820,125
479,-0.0163669977337,4821,125
480,-0.0163560397923,4822,125
481,-0.0163525752723,4823,125
482,-0.0163459274918,4824,125
483,-0.0163427423686,4825,125
484,-0.016336645931,4826,125
485,-0.0163309127092,4827,125
486,-0.0163255408406,4828,125
487,-0.0163205228746,4829,125
488,-0.0163136590272,4830,125
489,-0.0163095127791,4831,125
490,-0.0163057055324,4832,125
491,-0.0163039304316,4833,125
492,-0.0162991005927,4834,125
493,-0.0162962898612,4835,125
494,-0.0162938032299,4836,125
495,-0.0162926781923,4837,125
496,-0.0162906628102,4838,125
497,-0.016288952902,4839,125
498,-0.0162875503302,4840,125
499,-0.0162864457816,4841,125
500,-0.0162856373936,4842,125
501,-0.016285110265,4843,125
502,-0.0162848681211,4844,125
503,-0.0162848997861,4845,125
504,-0.0162852052599,4846,125
505,-0.0162857752293,4847,125
506,-0.0162866022438,4848,125
507,-0.0162871088833,4849,125
508,-0.0162890031934,4850,125
509,-0.01629056409,4851,125
510,-0.0162914320827,4852,125
511,-0.0162933450192,4853,125
512,-0.0162943843752,4854,125
513,-0.0162966251373,4855,125
514,-0.016299078241,4856,125
515,-0.0163017418236,4857,125
516,-0.0163045972586,4858,125
517,-0.0163092445582,4859,125
518,-0.0163108855486,4860,125
519,-0.0163160655648,4861,125
520,-0.0163178797811,4862,125
521,-0.016323549673,4863,125
522,-0.0163275189698,4864,125
523,-0.0163295604289,4865,125
524,-0.0163358803838,4866,125
525,-0.0163380522281,4867,125
526,-0.0163424834609,4868,125
527,-0.0163447391242,4869,125
528,-0.0163516756147,4870,125
529,-0.0163564216346,4871,125
530,-0.016361258924,4872,125
531,-0.0163637064397,4873,125
532,-0.0163711570203,4874,125
533,-0.0163762066513,4875,125
534,-0.0163813084364,4876,125
535,-0.0163838751614,4877,125
536,-0.0163890346885,4878,125
537,-0.0163968298584,4879,125
538,-0.0164020471275,4880,125
539,-0.016404658556,4881,125
540,-0.0164124909788,4882,125
541,-0.0164150968194,4883,125
542,-0.0164202935994,4884,125
543,-0.0164254624397,4885,125
544,-0.016430594027,4886,125
545,-0.016433140263,4887,125
546,-0.0164381954819,4888,125
547,-0.016445659101,4889,125
548,-0.0164505373687,4890,125
549,-0.0164553262293,4891,125
550,-0.0164600182325,4892,125
551,-0.0164623204619,4893,125
552,-0.0164668429643,4894,125
553,-0.0164733882993,4895,125
554,-0.0164775773883,4896,125
555,-0.016481615603,4897,125
556,-0.0164835769683,4898,125
557,-0.0164854917675,4899,125
558,-0.0164909772575,4900,125
559,-0.0164944026619,4901,125
560,-0.0164976287633,4902,125
561,-0.0165006406605,4903,125
562,-0.0165034346282,4904,125
563,-0.0165059957653,4905,125
564,-0.0165071841329,4906,125
565,-0.0165103785694,4907,125
566,-0.0165121778846,4908,125
567,-0.0165129750967,4909,125
568,-0.0165149401873,4910,125
569,-0.0165158808231,4911,125
570,-0.016516238451,4912,125
571,-0.0165167134255,4913,125
572,-0.0165168661624,4914,125
573,-0.0165166873485,4915,125
574,-0.0165164656937,4916,125
575,-0.0165157616138,4917,125
576,-0.0165140256286,4918,125
577,-0.0165123976767,4919,125
578,-0.0165103860199,4920,125
579,-0.0165079738945,4921,125
580,-0.0165051594377,4922,125
581,-0.016501924023,4923,125
582,-0.0165001433343,4924,125
583,-0.0164941567928,4925,125
584,-0.0164919383824,4926,125
585,-0.0164845995605,4927,125
586,-0.0164791215211,4928,125
587,-0.0164762046188,4929,125
588,-0.0164700075984,4930,125
589,-0.0164633151144,4931,125
590,-0.0164561234415,4932,125
591,-0.0164484214038,4933,125
592,-0.0164401959628,4934,125
593,-0.0164358858019,4935,125
594,-0.0164268612862,4936,125
595,-0.0164123084396,4937,125
596,-0.0164019111544,4938,125
597,-0.0163909494877,4939,125
598,-0.016379410401,4940,125
599,-0.016367290169,4941,125
600,-0.0163610093296,4942,125
601,-0.0163412727416,4943,125
602,-0.0163343902677,4944,125
603,-0.0163201652467,4945,125
604,-0.0163053218275,4946,125
605,-0.0162898544222,4947,125
606,-0.0162737444043,4948,125
607,-0.0162654519081,4949,125
608,-0.0162395946681,4950,125
609,-0.0162215381861,4951,125
610,-0.0162122584879,4952,125
611,-0.0161932017654,4953,125
612,-0.0161633398384,4954,125
613,-0.0161530449986,4955,125
614,-0.0161211248487,4956,125
615,-0.0161101333797,4957,125
616,-0.0160876270384,4958,125
617,-0.0160644128919,4959,125
618,-0.0160404797643,4960,125
619,-0.0160158257931,4961,125
620,-0.0159904416651,4962,125
621,-0.0159774739295,4963,125
622,-0.0159374661744,4964,125
623,-0.0159098617733,4965,125
624,-0.0158815030009,4966,125
625,-0.0158523879945,4967,125
626,-0.0158225055784,4968,125
627,-0.0157918576151,4969,125
628,-0.0157604347914,4970,125
629,-0.0157282296568,4971,125
630,-0.0156952422112,4972,125
631,-0.0156614650041,4973,125
632,-0.0156442765146,4974,125
633,-0.015609302558,4975,125
634,-0.0155915170908,4976,125
635,-0.0155553361401,4977,125
636,-0.0154995452613,4978,125
637,-0.0154613321647,4979,125
638,-0.015422295779,4980,125
639,-0.0153824333102,4981,125
640,-0.0153621919453,4982,125
641,-0.0153002133593,4983,125
642,-0.0152791347355,4984,125
643,-0.0152363469824,4985,125
644,-0.0151705769822,4986,125
645,-0.0151256658137,4987,125
646,-0.0151028893888,4988,125
647,-0.0150566920638,4989,125
648,-0.0150096341968,4990,125
649,-0.0149857802317,4991,125
650,-0.0149374203756,4992,125
651,-0.0148632451892,4993,125
652,-0.0148126985878,4994,125
653,-0.0147612728179,4995,125
654,-0.0147089632228,4996,125
655,-0.0146824736148,4997,125
656,-0.0146288294345,4998,125
657,-0.0145466877148,4999,125
658,-0.0144908055663,5000,125
659,-0.014434020035,5001,125
660,-0.0144052878022,5002,125
661,-0.0143177304417,5003,125
662,-0.0142880920321,5004,125
663,-0.0142582245171,5005,125
664,-0.0141672510654,5006,125
665,-0.0141364680603,5007,125
666,-0.0140427397564,5008,125
667,-0.0139790996909,5009,125
668,-0.0139469327405,5010,125
669,-0.0138819050044,5011,125
670,-0.0137826194987,5012,125
671,-0.0137152634561,5013,125
