,amplitude,tstep,vfp
0,-0.0100126629695,4663,125
1,-0.0100259557366,4664,125
2,-0.0100658787414,4665,125
3,-0.0100925248116,4666,125
4,-0.0101191950962,4667,125
5,-0.0101458868012,4668,125
6,-0.0101592419669,4669,125
7,-0.0101859671995,4670,125
8,-0.0102127129212,4671,125
9,-0.0102394754067,4672,125
10,-0.0102662537247,4673,125
11,-0.0102930469438,4674,125
12,-0.0103198541328,4675,125
13,-0.0103466687724,4676,125
14,-0.0103734908625,4677,125
15,-0.0103869047016,4678,125
16,-0.0104271462187,4679,125
17,-0.0104539729655,4680,125
18,-0.0104673849419,4681,125
19,-0.0105076106265,4682,125
20,-0.0105344131589,4683,125
21,-0.0105612017214,4684,125
22,-0.0105879707262,4685,125
23,-0.010601346381,4686,125
24,-0.0106280809268,4687,125
25,-0.0106547838077,4688,125
26,-0.0106681231409,4689,125
27,-0.0107080861926,4690,125
28,-0.0107213864103,4691,125
29,-0.0107612162828,4692,125
30,-0.0107877049595,4693,125
31,-0.0108009269461,4694,125
32,-0.0108404997736,4695,125
33,-0.0108667956665,4696,125
34,-0.0108930179849,4697,125
35,-0.0109060984105,4698,125
36,-0.010932196863,4699,125
37,-0.0109582059085,4700,125
38,-0.0109841208905,4701,125
39,-0.0110099324957,4702,125
40,-0.0110227977857,4703,125
41,-0.0110484454781,4704,125
42,-0.0110866930336,4705,125
43,-0.0111120333895,4706,125
44,-0.011137239635,4707,125
45,-0.0111623043194,4708,125
46,-0.011174781248,4709,125
47,-0.0112119847909,4710,125
48,-0.0112365856767,4711,125
49,-0.0112610189244,4712,125
50,-0.0112852770835,4713,125
51,-0.0113093517721,4714,125
52,-0.0113332411274,4715,125
53,-0.0113451108336,4716,125
54,-0.0113687030971,4717,125
55,-0.0113804219291,4718,125
56,-0.0114152599126,4719,125
57,-0.0114382123575,4720,125
58,-0.0114609394222,4721,125
59,-0.0114722168073,4722,125
60,-0.0114945946261,4723,125
61,-0.0115167293698,4724,125
62,-0.0115494644269,4725,125
63,-0.0115709686652,4726,125
64,-0.0115922093391,4727,125
65,-0.0116131817922,4728,125
66,-0.0116338795051,4729,125
67,-0.0116441231221,4730,125
68,-0.0116744311526,4731,125
69,-0.0116843907163,4732,125
70,-0.0117040872574,4733,125
71,-0.0117234876379,4734,125
72,-0.0117425890639,4735,125
73,-0.0117613850161,4736,125
74,-0.0117798736319,4737,125
75,-0.0117980474606,4738,125
76,-0.0118159065023,4739,125
77,-0.0118334488943,4740,125
78,-0.01185066998,4741,125
79,-0.0118675669655,4742,125
80,-0.0118758929893,4743,125
81,-0.0119003830478,4744,125
82,-0.0119162993506,4745,125
83,-0.0119318850338,4746,125
84,-0.0119395554066,4747,125
85,-0.0119546465576,4748,125
86,-0.0119620673358,4749,125
87,-0.0119838351384,4750,125
88,-0.0119909271598,4751,125
89,-0.0120048606768,4752,125
90,-0.0120251439512,4753,125
91,-0.012031740509,4754,125
92,-0.012051044032,4755,125
93,-0.012063507922,4756,125
94,-0.012075651437,4757,125
95,-0.0120874736458,4758,125
96,-0.0120932674035,4759,125
97,-0.0121101764962,4760,125
98,-0.0121210636571,4761,125
99,-0.0121263926849,4762,125
100,-0.0121316453442,4763,125
101,-0.0121419243515,4764,125
102,-0.0121519062668,4765,125
103,-0.0121663352475,4766,125
104,-0.0121755944565,4767,125
105,-0.0121845742688,4768,125
106,-0.0121932793409,4769,125
107,-0.0122017143294,4770,125
108,-0.0122098848224,4771,125
109,-0.0122138718143,4772,125
110,-0.0122254546732,4773,125
111,-0.0122291920707,4774,125
112,-0.0122400363907,4775,125
113,-0.0122469738126,4776,125
114,-0.0122503554448,4777,125
115,-0.0122569510713,4778,125
116,-0.012263325043,4779,125
117,-0.0122694866732,4780,125
118,-0.0122754406184,4781,125
119,-0.0122811924666,4782,125
120,-0.0122839948162,4783,125
121,-0.0122921140864,4784,125
122,-0.0122972959653,4785,125
123,-0.0123022999614,4786,125
124,-0.012307131663,4787,125
125,-0.0123094832525,4788,125
126,-0.0123162902892,4789,125
127,-0.0123206330463,4790,125
128,-0.0123248202726,4791,125
129,-0.0123268580064,4792,125
130,-0.0123288584873,4793,125
131,-0.0123346457258,4794,125
132,-0.0123383291066,4795,125
133,-0.0123418774456,4796,125
134,-0.0123452926055,4797,125
135,-0.0123485792428,4798,125
136,-0.012351738289,4799,125
137,-0.0123547716066,4800,125
138,-0.0123562430963,4801,125
139,-0.0123604703695,4802,125
140,-0.012363136746,4803,125
141,-0.0123656829819,4804,125
142,-0.0123681090772,4805,125
143,-0.0123692769557,4806,125
144,-0.012372598052,4807,125
145,-0.012373642996,4808,125
146,-0.0123746581376,4809,125
147,-0.0123775172979,4810,125
148,-0.0123792653903,4811,125
149,-0.0123800905421,4812,125
150,-0.0123823694885,4813,125
151,-0.0123837208375,4814,125
152,-0.0123849315569,4815,125
153,-0.0123860007152,4816,125
154,-0.0123869208619,4817,125
155,-0.0123873250559,4818,125
156,-0.012388301082,4819,125
157,-0.0123887481168,4820,125
158,-0.0123890284449,4821,125
159,-0.0123891020194,4822,125
160,-0.0123891169205,4823,125
161,-0.0123889464885,4824,125
162,-0.012388584204,4825,125
163,-0.0123880216852,4826,125
164,-0.012387663126,4827,125
165,-0.0123862707987,4828,125
166,-0.01238506753,4829,125
167,-0.0123836314306,4830,125
168,-0.0123819597065,4831,125
169,-0.0123810321093,4832,125
170,-0.0123778684065,4833,125
171,-0.0123754320666,4834,125
172,-0.0123727228492,4835,125
173,-0.0123697351664,4836,125
174,-0.0123681332916,4837,125
175,-0.0123647088185,4838,125
176,-0.0123609835282,4839,125
177,-0.0123569471762,4840,125
178,-0.0123525932431,4841,125
179,-0.0123479142785,4842,125
180,-0.0123454490677,4843,125
181,-0.012337544933,4844,125
182,-0.0123318368569,4845,125
183,-0.0123257758096,4846,125
184,-0.0123226083815,4847,125
185,-0.0123125519603,4848,125
186,-0.0123053770512,4849,125
187,-0.0122978175059,4850,125
188,-0.0122898686677,4851,125
189,-0.0122857484967,4852,125
190,-0.0122772054747,4853,125
191,-0.0122682610527,4854,125
192,-0.0122636361048,4855,125
193,-0.0122491456568,4856,125
194,-0.0122441118583,4857,125
195,-0.0122283799574,4858,125
196,-0.0122173698619,4859,125
197,-0.0122117074206,4860,125
198,-0.0122000658885,4861,125
199,-0.0121818110347,4862,125
200,-0.0121691115201,4863,125
201,-0.0121626043692,4864,125
202,-0.01214245148,4865,125
203,-0.0121355233714,4866,125
204,-0.0121141141281,4867,125
205,-0.0121067687869,4868,125
206,-0.0120917744935,4869,125
207,-0.0120763704181,4870,125
208,-0.01206056308,4871,125
209,-0.0120443562046,4872,125
210,-0.0120361065492,4873,125
211,-0.0120193148032,4874,125
212,-0.0119934128597,4875,125
213,-0.0119756804779,4876,125
214,-0.0119666755199,4877,125
215,-0.011948402971,4878,125
216,-0.0119297821075,4879,125
217,-0.0119108203799,4880,125
218,-0.0118817659095,4881,125
219,-0.0118620051071,4882,125
220,-0.0118520101532,4883,125
221,-0.0118318041787,4884,125
222,-0.011811315082,4885,125
223,-0.0118009699509,4886,125
224,-0.0117695489898,4887,125
225,-0.0117482962087,4888,125
226,-0.0117375841364,4889,125
227,-0.0117051266134,4890,125
228,-0.0116942059249,4891,125
229,-0.0116611700505,4892,125
230,-0.0116389365867,4893,125
231,-0.0116165531799,4894,125
232,-0.0116053111851,4895,125
233,-0.0115827349946,4896,125
234,-0.0115486709401,4897,125
235,-0.0115372724831,4898,125
236,-0.0115258544683,4899,125
237,-0.0114915119484,4900,125
238,-0.0114800408483,4901,125
239,-0.0114570781589,4902,125
240,-0.011434099637,4903,125
241,-0.0113996434957,4904,125
242,-0.0113881677389,4905,125
243,-0.011365249753,4906,125
244,-0.0113309780136,4907,125
245,-0.0113082230091,4908,125
246,-0.0112855639309,4909,125
247,-0.0112742763013,4910,125
248,-0.0112405978143,4911,125
249,-0.0112294387072,4912,125
250,-0.0112072397023,4913,125
251,-0.0111852046102,4914,125
252,-0.0111633529887,4915,125
253,-0.0111416960135,4916,125
254,-0.011130945757,4917,125
255,-0.0110990274698,4918,125
256,-0.011088504456,4919,125
257,-0.0110573060811,4920,125
258,-0.011047036387,4921,125
259,-0.0110166314989,4922,125
260,-0.0109967170283,4923,125
261,-0.0109770968556,4924,125
262,-0.010967399925,4925,125
263,-0.0109387831762,4926,125
264,-0.0109201101586,4927,125
265,-0.0109108956531,4928,125
266,-0.0108927227557,4929,125
267,-0.0108748935163,4930,125
268,-0.0108574125916,4931,125
269,-0.0108402892947,4932,125
270,-0.0108318626881,4933,125
271,-0.0108152851462,4934,125
272,-0.0107911070809,4935,125
273,-0.0107832327485,4936,125
274,-0.0107601778582,4937,125
275,-0.0107452785596,4938,125
276,-0.0107307592407,4939,125
277,-0.0107166208327,4940,125
278,-0.010709692724,4941,125
279,-0.0106894792989,4942,125
280,-0.0106764771044,4943,125
281,-0.0106701171026,4944,125
282,-0.0106576774269,4945,125
283,-0.0106456112117,4946,125
284,-0.0106397140771,4947,125
285,-0.0106281992048,4948,125
286,-0.0106170456856,4949,125
287,-0.0106009868905,4950,125
288,-0.0105907181278,4951,125
289,-0.0105857132003,4952,125
290,-0.0105712078512,4953,125
291,-0.0105619505048,4954,125
292,-0.0105574447662,4955,125
293,-0.0105443978682,4956,125
294,-0.0105360867456,4957,125
295,-0.0105280736461,4958,125
296,-0.0105241760612,4959,125
297,-0.0105165932328,4960,125
298,-0.0105092870072,4961,125
299,-0.0105022462085,4962,125
300,-0.0104954615235,4963,125
301,-0.010492162779,4964,125
302,-0.0104826232418,4965,125
303,-0.0104765482247,4966,125
304,-0.0104706892744,4967,125
305,-0.010467838496,4968,125
306,-0.0104622840881,4969,125
307,-0.010454303585,4970,125
308,-0.0104492017999,4971,125
309,-0.0104442657903,4972,125
310,-0.0104418555275,4973,125
311,-0.0104371439666,4974,125
312,-0.0104325693101,4975,125
313,-0.0104281222448,4976,125
314,-0.0104237915948,4977,125
315,-0.0104195680469,4978,125
316,-0.0104174939916,4979,125
317,-0.0104114031419,4980,125
318,-0.0104074431583,4981,125
319,-0.0104035520926,4982,125
320,-0.0104016317055,4983,125
321,-0.0103959431872,4984,125
322,-0.0103940702975,4985,125
323,-0.0103885084391,4986,125
324,-0.0103848362342,4987,125
325,-0.010381186381,4988,125
326,-0.010379367508,4989,125
327,-0.0103757381439,4990,125
328,-0.0103721106425,4991,125
329,-0.0103702973574,4992,125
330,-0.0103648472577,4993,125
331,-0.0103612011299,4994,125
332,-0.010359371081,4995,125
333,-0.0103556988761,4996,125
334,-0.0103501416743,4997,125
335,-0.0103482753038,4998,125
336,-0.010342631489,4999,125
337,-0.0103388251737,5000,125
338,-0.0103349825367,5001,125
339,-0.0103330463171,5002,125
340,-0.0103271771222,5003,125
341,-0.0103252027184,5004,125
342,-0.0103212166578,5005,125
343,-0.0103171905503,5006,125
344,-0.0103151602671,5007,125
345,-0.0103090060875,5008,125
346,-0.0103069338948,5009,125
347,-0.010302756913,5010,125
348,-0.0102964155376,5011,125
349,-0.0102921398357,5012,125
350,-0.0102878250182,5013,125
351,-0.0102834738791,5014,125
352,-0.0102790910751,5015,125
353,-0.0102746756747,5016,125
354,-0.0102724581957,5017,125
355,-0.010265766643,5018,125
356,-0.0102635230869,5019,125
357,-0.0102590229362,5020,125
358,-0.0102545050904,5021,125
359,-0.0102499732748,5022,125
360,-0.0102454302832,5023,125
361,-0.0102431550622,5024,125
362,-0.0102363266051,5025,125
363,-0.0102317743003,5026,125
364,-0.0102272247896,5027,125
365,-0.0102226836607,5028,125
366,-0.010218154639,5029,125
367,-0.0102158952504,5030,125
368,-0.0102091468871,5031,125
369,-0.0102046746761,5032,125
370,-0.0102002294734,5033,125
371,-0.0101980185136,5034,125
372,-0.0101936208084,5035,125
373,-0.0101914359257,5036,125
374,-0.0101870903745,5037,125
375,-0.0101806493476,5038,125
376,-0.0101785240695,5039,125
377,-0.0101743079722,5040,125
378,-0.0101701421663,5041,125
379,-0.0101660257205,5042,125
380,-0.0101619632915,5043,125
381,-0.0101559730247,5044,125
382,-0.010152050294,5045,125
383,-0.0101481880993,5046,125
384,-0.010146278888,5047,125
385,-0.0101406443864,5048,125
386,-0.0101369637996,5049,125
387,-0.0101351467893,5050,125
388,-0.0101333446801,5051,125
389,-0.0101280342788,5052,125
390,-0.0101245697588,5053,125
391,-0.0101211685687,5054,125
392,-0.0101178269833,5055,125
393,-0.0101145431399,5056,125
394,-0.0101129226387,5057,125
395,-0.0101081486791,5058,125
396,-0.0101050315425,5059,125
397,-0.0101019656286,5060,125
398,-0.0101004522294,5061,125
399,-0.010097457096,5062,125
400,-0.0100930491462,5063,125
401,-0.010090158321,5064,125
402,-0.0100887278095,5065,125
403,-0.0100858891383,5066,125
404,-0.0100830812007,5067,125
405,-0.0100802984089,5068,125
406,-0.0100775351748,5069,125
407,-0.0100761605427,5070,125
408,-0.0100720524788,5071,125
409,-0.0100706871599,5072,125
410,-0.0100665921345,5073,125
411,-0.0100638559088,5074,125
412,-0.0100611113012,5075,125
413,-0.0100597329438,5076,125
414,-0.0100569631904,5077,125
415,-0.0100527564064,5078,125
416,-0.0100513389334,5079,125
417,-0.0100484732538,5080,125
418,-0.0100455647334,5081,125
419,-0.0100426068529,5082,125
420,-0.0100411074236,5083,125
421,-0.010036515072,5084,125
422,-0.0100349495187,5085,125
423,-0.0100301476195,5086,125
424,-0.0100285066292,5087,125
425,-0.0100251603872,5088,125
426,-0.0100199654698,5089,125
427,-0.0100163789466,5090,125
428,-0.0100145451725,5091,125
429,-0.0100107947364,5092,125
430,-0.0100049478933,5093,125
431,-0.0100008929148,5094,125
0,-0.0100001748651,4644,126
1,-0.0100502222776,4645,126
2,-0.0100836511701,4646,126
3,-0.0101171396673,4647,126
4,-0.0101506924257,4648,126
5,-0.0101843159646,4649,126
6,-0.010218013078,4650,126
7,-0.0102517902851,4651,126
8,-0.010268708691,4652,126
9,-0.0103195980191,4653,126
10,-0.0103366049007,4654,126
11,-0.0103877624497,4655,126
12,-0.0104048633948,4656,126
13,-0.0104391351342,4657,126
14,-0.0104735046625,4658,126
15,-0.0104907257482,4659,126
16,-0.0105425361544,4660,126
17,-0.0105598559603,4661,126
18,-0.0106119597331,4662,126
19,-0.0106468163431,4663,126
20,-0.0106817698106,4664,126
21,-0.0107168154791,4665,126
22,-0.0107519533485,4666,126
23,-0.0107695544139,4667,126
24,-0.0108224889264,4668,126
25,-0.0108578810468,4669,126
26,-0.0108933476731,4670,126
27,-0.0109111089259,4671,126
28,-0.0109466826543,4672,126
29,-0.0109644932672,4673,126
30,-0.0110001619905,4674,126
31,-0.01105376333,4675,126
32,-0.0110895559192,4676,126
33,-0.0111253857613,4677,126
34,-0.0111612444744,4678,126
35,-0.0111971274018,4679,126
36,-0.0112330233678,4680,126
37,-0.0112689249218,4681,126
38,-0.0113048218191,4682,126
39,-0.0113407047465,4683,126
40,-0.0113765634596,4684,126
41,-0.0114123886451,4685,126
42,-0.0114302868024,4686,126
43,-0.0114481719211,4687,126
44,-0.011501736939,4688,126
45,-0.0115373609588,4689,126
46,-0.0115729002282,4690,126
47,-0.0116083445027,4691,126
48,-0.0116436816752,4692,126
49,-0.0116613069549,4693,126
50,-0.0117139844224,4694,126
51,-0.0117489239201,4695,126
52,-0.0117837060243,4696,126
53,-0.0118010342121,4697,126
54,-0.0118355546147,4698,126
55,-0.0118869747967,4699,126
56,-0.0119209932163,4700,126
57,-0.0119379190728,4701,126
58,-0.0119715947658,4702,126
59,-0.0119883418083,4703,126
60,-0.0120381973684,4704,126
61,-0.0120710963383,4705,126
62,-0.0120874391869,4706,126
63,-0.0121199032292,4707,126
64,-0.012168017216,4708,126
65,-0.0121996840462,4709,126
66,-0.0122153908014,4710,126
67,-0.0122619783506,4711,126
68,-0.0122925769538,4712,126
69,-0.0123077332973,4713,126
70,-0.0123526109383,4714,126
71,-0.0123820174485,4715,126
72,-0.0124110002071,4716,126
73,-0.0124253276736,4717,126
74,-0.012453651987,4718,126
75,-0.0124815190211,4719,126
76,-0.0125089166686,4720,126
77,-0.0125358328223,4721,126
78,-0.0125491060317,4722,126
79,-0.0125752743334,4723,126
80,-0.012600931339,4724,126
81,-0.0126384319738,4725,126
82,-0.0126627581194,4726,126
83,-0.0126865310594,4727,126
84,-0.0127097414806,4728,126
85,-0.0127323791385,4729,126
86,-0.0127544319257,4730,126
87,-0.0127758914605,4731,126
88,-0.0127863958478,4732,126
89,-0.0128069482744,4733,126
90,-0.0128268841654,4734,126
91,-0.012846195139,4735,126
92,-0.0128648718819,4736,126
93,-0.0128829097375,4737,126
94,-0.0128916855901,4738,126
95,-0.0129170296714,4739,126
96,-0.012933101505,4740,126
97,-0.0129485037178,4741,126
98,-0.0129559515044,4742,126
99,-0.01297727786,4743,126
100,-0.0129906404763,4744,126
101,-0.0130033148453,4745,126
102,-0.0130152953789,4746,126
103,-0.0130210248753,4747,126
104,-0.0130265802145,4748,126
105,-0.0130421929061,4749,126
106,-0.0130517212674,4750,126
107,-0.0130605455488,4751,126
108,-0.0130686629564,4752,126
109,-0.0130760725588,4753,126
110,-0.0130795128644,4754,126
111,-0.0130858570337,4755,126
112,-0.0130940489471,4756,126
113,-0.0130986254662,4757,126
114,-0.0131006492302,4758,126
115,-0.0131056644022,4759,126
116,-0.0131081305444,4760,126
117,-0.0131098972633,4761,126
118,-0.0131105203182,4762,126
119,-0.0131112476811,4763,126
120,-0.0131112840027,4764,126
121,-0.0131106358021,4765,126
122,-0.0131093077362,4766,126
123,-0.0131073072553,4767,126
124,-0.0131046380848,4768,126
125,-0.0131013076752,4769,126
126,-0.0130973234773,4770,126
127,-0.0130926901475,4771,126
128,-0.0130874188617,4772,126
129,-0.0130845457315,4773,126
130,-0.013078331016,4774,126
131,-0.013067853637,4775,126
132,-0.0130601124838,4776,126
133,-0.0130560183898,4777,126
134,-0.0130473915488,4778,126
135,-0.0130381872877,4779,126
136,-0.0130333714187,4780,126
137,-0.0130180884153,4781,126
138,-0.0130072180182,4782,126
139,-0.0129958186299,4783,126
140,-0.012989923358,4784,126
141,-0.0129777500406,4785,126
142,-0.0129585592076,4786,126
143,-0.0129519216716,4787,126
144,-0.0129313068464,4788,126
145,-0.0129169961438,4789,126
146,-0.0129022514448,4790,126
147,-0.0128870848566,4791,126
148,-0.01287934836,4792,126
149,-0.0128715122119,4793,126
150,-0.0128474254161,4794,126
151,-0.0128392102197,4795,126
152,-0.0128225106746,4796,126
153,-0.0127968238667,4797,126
154,-0.0127880992368,4798,126
155,-0.0127614671364,4799,126
156,-0.0127433491871,4800,126
157,-0.0127341886982,4801,126
158,-0.0127063225955,4802,126
159,-0.0126874474809,4803,126
160,-0.0126683525741,4804,126
161,-0.012649054639,4805,126
162,-0.0126295723021,4806,126
163,-0.0126099204645,4807,126
164,-0.0126000372693,4808,126
165,-0.0125801656395,4809,126
166,-0.0125601692125,4810,126
167,-0.0125400628895,4811,126
168,-0.0125198643655,4812,126
169,-0.0125097353011,4813,126
170,-0.0124792577699,4814,126
171,-0.0124588832259,4815,126
172,-0.0124384835362,4816,126
173,-0.0124180745333,4817,126
174,-0.0123976701871,4818,126
175,-0.0123874768615,4819,126
176,-0.0123569481075,4820,126
177,-0.0123467966914,4821,126
178,-0.0123164383695,4822,126
179,-0.0123063586652,4823,126
180,-0.0122862681746,4824,126
181,-0.0122662819922,4825,126
182,-0.012246415019,4826,126
183,-0.0122266793624,4827,126
184,-0.0122168669477,4828,126
185,-0.0121876588091,4829,126
186,-0.012178006582,4830,126
187,-0.0121588381007,4831,126
188,-0.0121304448694,4832,126
189,-0.0121117690578,4833,126
190,-0.0121025135741,4834,126
191,-0.0120841674507,4835,126
192,-0.0120660550892,4836,126
193,-0.0120481839404,4837,126
194,-0.0120305642486,4838,126
195,-0.0120218517259,4839,126
196,-0.0119961118326,4840,126
197,-0.0119792940095,4841,126
198,-0.0119627593085,4842,126
199,-0.0119465123862,4843,126
200,-0.0119384992868,4844,126
201,-0.011914908886,4845,126
202,-0.0118995616212,4846,126
203,-0.0118845235556,4847,126
204,-0.0118771204725,4848,126
205,-0.0118625536561,4849,126
206,-0.0118483016267,4850,126
207,-0.0118275247514,4851,126
208,-0.0118140745908,4852,126
209,-0.0118074687198,4853,126
210,-0.0118009457365,4854,126
211,-0.0117881400511,4855,126
212,-0.0117756575346,4856,126
213,-0.0117634944618,4857,126
214,-0.0117458496243,4858,126
215,-0.0117401275784,4859,126
216,-0.0117234308273,4860,126
217,-0.0117126889527,4861,126
218,-0.0117074334994,4862,126
219,-0.0116921216249,4863,126
220,-0.0116822859272,4864,126
221,-0.0116774775088,4865,126
222,-0.0116634871811,4866,126
223,-0.0116545110941,4867,126
224,-0.0116501254961,4868,126
225,-0.011641559191,4869,126
226,-0.0116373747587,4870,126
227,-0.0116252098233,4871,126
228,-0.011617410928,4872,126
229,-0.01161360275,4873,126
230,-0.011606162414,4874,126
231,-0.0115989493206,4875,126
232,-0.0115919550881,4876,126
233,-0.0115818530321,4877,126
234,-0.0115753645077,4878,126
235,-0.0115721905604,4879,126
236,-0.0115659777075,4880,126
237,-0.0115569746122,4881,126
238,-0.0115511696786,4882,126
239,-0.0115483226255,4883,126
240,-0.0115427309647,4884,126
241,-0.0115399863571,4885,126
242,-0.0115345874801,4886,126
