,amplitude,tstep,vfp
0,-0.0135518927127,4608,131
1,-0.0135360248387,4609,131
2,-0.0135274659842,4610,131
3,-0.0135091003031,4611,131
4,-0.0134890731424,4612,131
5,-0.0134673900902,4613,131
6,-0.0134559292346,4614,131
7,-0.0134317716584,4615,131
8,-0.0133924521506,4616,131
9,-0.0133641930297,4617,131
10,-0.013334303163,4618,131
11,-0.0133187482134,4619,131
12,-0.0132864220068,4620,131
13,-0.0132349049672,4621,131
14,-0.0131985489279,4622,131
15,-0.0131797706708,4623,131
16,-0.0131210442632,4624,131
17,-0.0130799086764,4625,131
18,-0.0130587480962,4626,131
19,-0.0130152460188,4627,131
20,-0.0129701755941,4628,131
21,-0.0129470555112,4629,131
22,-0.0128996493295,4630,131
23,-0.0128256408498,4631,131
24,-0.0127743836492,4632,131
25,-0.0127216009423,4633,131
26,-0.0126673039049,4634,131
27,-0.012639590539,4635,131
28,-0.0125830406323,4636,131
29,-0.0125250015408,4637,131
30,-0.0124654844403,4638,131
31,-0.0124045005068,4639,131
32,-0.0123102981597,4640,131
33,-0.0122781777754,4641,131
34,-0.0122456997633,4642,131
35,-0.0121461367235,4643,131
36,-0.0120780030265,4644,131
37,-0.0120434146374,4645,131
38,-0.0119375837967,4646,131
39,-0.0118653271347,4647,131
40,-0.0118286944926,4648,131
41,-0.0117544289678,4649,131
42,-0.0116405636072,4650,131
43,-0.0115630347282,4651,131
44,-0.0114842308685,4652,131
45,-0.0114443572238,4653,131
46,-0.0113636767492,4654,131
47,-0.0112403621897,4655,131
48,-0.0111986557022,4656,131
49,-0.0111143579707,4657,131
50,-0.0110288970172,4658,131
51,-0.0109422951937,4659,131
52,-0.010854575783,4660,131
53,-0.0107657620683,4661,131
54,-0.0106758801267,4662,131
55,-0.0106305461377,4663,131
56,-0.0104930112138,4664,131
57,-0.0104000763968,4665,131
58,-0.0103061795235,4666,131
59,-0.0102113476023,4667,131
60,-0.0101156104356,4668,131
61,-0.0100674116984,4669,131
62,-0.0100236674771,4298,131
63,-0.0100673381239,4299,131
64,-0.0101530347019,4300,131
65,-0.0102773969993,4301,131
66,-0.0103574618697,4302,131
67,-0.0104352086782,4303,131
68,-0.0105106011033,4304,131
69,-0.0105836074799,4305,131
70,-0.0106541933492,4306,131
71,-0.0107223279774,4307,131
72,-0.0107554662973,4308,131
73,-0.0108198653907,4309,131
74,-0.0108817396685,4310,131
75,-0.0109117226675,4311,131
76,-0.0109978122637,4312,131
77,-0.0110519602895,4313,131
78,-0.0111034838483,4314,131
79,-0.0111523633823,4315,131
80,-0.0111758057028,4316,131
81,-0.0112421158701,4317,131
82,-0.011282954365,4318,131
83,-0.0113210799173,4319,131
84,-0.0113391214982,4320,131
85,-0.0113891446963,4321,131
86,-0.0114190625027,4322,131
87,-0.0114329885691,4323,131
88,-0.0114587722346,4324,131
89,-0.0114817917347,4325,131
90,-0.0115020433441,4326,131
91,-0.0115111311898,4327,131
92,-0.0115342373028,4328,131
93,-0.0115405544639,4329,131
94,-0.0115553559735,4330,131
95,-0.0115617709234,4331,131
96,-0.0115654310212,4332,131
97,-0.0115663437173,4333,131
98,-0.0115645192564,4334,131
99,-0.0115625848994,4335,131
100,-0.0115527100861,4336,131
101,-0.0115480674431,4337,131
102,-0.0115367677063,4338,131
103,-0.011522796005,4339,131
104,-0.0115061737597,4340,131
105,-0.0114869205281,4341,131
106,-0.0114650623873,4342,131
107,-0.011440621689,4343,131
108,-0.0114136245102,4344,131
109,-0.0113840997219,4345,131
110,-0.0113683994859,4346,131
111,-0.0113175893202,4347,131
112,-0.0112806679681,4348,131
113,-0.0112613057718,4349,131
114,-0.0111996661872,4350,131
115,-0.0111556584015,4351,131
116,-0.011109367013,4352,131
117,-0.011060831137,4353,131
118,-0.0110357347876,4354,131
119,-0.0110100936145,4355,131
120,-0.0109572000802,4356,131
121,-0.0109021952376,4357,131
122,-0.0108158309013,4358,131
123,-0.0107557550073,4359,131
124,-0.010693738237,4360,131
125,-0.0106620173901,4361,131
126,-0.0105971852317,4362,131
127,-0.0104965614155,4363,131
128,-0.0104621471837,4364,131
129,-0.0103920511901,4365,131
130,-0.0102838482708,4366,131
131,-0.0102097578347,4367,131
132,-0.0101341726258,4368,131
133,-0.0100958384573,4369,131
134,-0.0100571541116,4370,131
135,-0.0100108152255,4529,131
136,-0.0101498058066,4530,131
137,-0.0102417636663,4531,131
138,-0.0103331105784,4532,131
139,-0.0104238074273,4533,131
140,-0.0105138132349,4534,131
141,-0.0105585446581,4535,131
142,-0.0106030888855,4536,131
143,-0.0107355490327,4537,131
144,-0.0108228335157,4538,131
145,-0.010909255594,4539,131
146,-0.0109521318227,4540,131
147,-0.0110371960327,4541,131
148,-0.011121311225,4542,131
149,-0.011204443872,4543,131
150,-0.0113272266462,4544,131
151,-0.0114077590406,4545,131
152,-0.0114871971309,4546,131
153,-0.0115655120462,4547,131
154,-0.0116042392328,4548,131
155,-0.0117186531425,4549,131
156,-0.0117561919615,4550,131
157,-0.0117934243754,4551,131
158,-0.0119032552466,4552,131
159,-0.0119748897851,4553,131
160,-0.0120102213696,4554,131
161,-0.012079898268,4555,131
162,-0.0121482424438,4556,131
163,-0.012248210609,4557,131
164,-0.0123131265864,4558,131
165,-0.0123766344041,4559,131
166,-0.0124387145042,4560,131
167,-0.0124692125246,4561,131
168,-0.0125291161239,4562,131
169,-0.0126162040979,4563,131
170,-0.0126444874331,4564,131
171,-0.0126999225467,4565,131
172,-0.0127270715311,4566,131
173,-0.0128062171862,4567,131
174,-0.0128570469096,4568,131
175,-0.0129063148052,4569,131
176,-0.0129303587601,4570,131
177,-0.0130001148209,4571,131
178,-0.0130446255207,4572,131
179,-0.0130875287578,4573,131
180,-0.0131288133562,4574,131
181,-0.0131684727967,4575,131
182,-0.0131876897067,4576,131
183,-0.0132248932496,4577,131
184,-0.0132776107639,4578,131
185,-0.0133106866851,4579,131
186,-0.0133266020566,4580,131
187,-0.0133571820334,4581,131
188,-0.0133718457073,4582,131
189,-0.0133999185637,4583,131
190,-0.0134388795123,4584,131
191,-0.0134627502412,4585,131
192,-0.0134849334136,4586,131
193,-0.0134953912348,4587,131
194,-0.0135242268443,4588,131
195,-0.0135413333774,4589,131
196,-0.0135567430407,4590,131
197,-0.0135704539716,4591,131
198,-0.0135824671015,4592,131
199,-0.013592781499,4593,131
200,-0.0135973012075,4594,131
201,-0.013608311303,4595,131
202,-0.013611132279,4596,131
203,-0.0136154992506,4597,131
204,-0.0136181684211,4598,131
205,-0.0136191416532,4599,131
206,-0.0136184198782,4600,131
207,-0.0136174242944,4601,131
208,-0.0136118996888,4602,131
209,-0.0136061040685,4603,131
210,-0.0135986236855,4604,131
211,-0.0135942511261,4605,131
212,-0.0135842459276,4606,131
213,-0.013566089794,4607,131
0,0.0100256372243,3442,132
1,0.0102165844291,3443,132
2,0.0103444159031,3444,132
3,0.0104726469144,3445,132
4,0.0105369044468,3446,132
5,0.0106012541801,3447,132
6,0.0107948184013,3448,132
7,0.0108595024794,3449,132
8,0.0110539998859,3450,132
9,0.0111840050668,3451,132
10,0.0113142523915,3452,132
11,0.0113794598728,3453,132
12,0.0115753756836,3454,132
13,0.011706199497,3455,132
14,0.0118371630087,3456,132
15,0.0119682401419,3457,132
16,0.0120338127017,3458,132
17,0.0122306272388,3459,132
18,0.0122962519526,3460,132
19,0.0124275134876,3461,132
20,0.0124931428581,3462,132
21,0.0126899806783,3463,132
22,0.0128211313859,3464,132
23,0.0128866732121,3465,132
24,0.0130831245333,3466,132
25,0.0132139092311,3467,132
26,0.013344515115,3468,132
27,0.0134749123827,3469,132
28,0.0136050730944,3470,132
29,0.0137349655852,3471,132
30,0.0137998033315,3472,132
31,0.0139938350767,3473,132
32,0.0140583394095,3474,132
33,0.01425128337,3475,132
34,0.0143153946847,3476,132
35,0.0144432922825,3477,132
36,0.0145707307383,3478,132
37,0.0146976802498,3479,132
38,0.0147609626874,3480,132
39,0.0149499904364,3481,132
40,0.0150127150118,3482,132
41,0.0151999844238,3483,132
42,0.0152620924637,3484,132
43,0.0154474219307,3485,132
44,0.0155701087788,3486,132
45,0.0156920664012,3487,132
46,0.0157527625561,3488,132
47,0.0159336794168,3489,132
48,0.0159935820848,3490,132
49,0.0161127597094,3491,132
50,0.0162310786545,3492,132
51,0.0162899065763,3493,132
52,0.016465017572,3494,132
53,0.0165805798024,3495,132
54,0.0166951678693,3496,132
55,0.0167520884424,3497,132
56,0.0168651584536,3498,132
57,0.017032796517,3499,132
58,0.0170881357044,3500,132
59,0.0172524936497,3501,132
60,0.017360644415,3502,132
61,0.0174676273018,3503,132
62,0.0175734180957,3504,132
63,0.0176779869944,3505,132
64,0.0177298057824,3506,132
65,0.0178324971348,3507,132
66,0.017933903262,3508,132
67,0.0180339999497,3509,132
68,0.0181327629834,3510,132
69,0.0182301681489,3511,132
70,0.0182783547789,3512,132
71,0.0184208136052,3513,132
72,0.0185140073299,3514,132
73,0.0186057537794,3515,132
74,0.0186960268766,3516,132
75,0.0187406055629,3517,132
76,0.0188720747828,3518,132
77,0.0189151354134,3519,132
78,0.019000094384,3520,132
79,0.0191245935857,3521,132
80,0.0191652998328,3522,132
81,0.0192455090582,3523,132
82,0.019324099645,3524,132
83,0.0194010529667,3525,132
84,0.0194389112294,3526,132
85,0.0195499807596,3527,132
86,0.0195861626416,3528,132
87,0.0196921639144,3529,132
88,0.0197266414762,3530,132
89,0.0197943039238,3531,132
90,0.0198925361037,3532,132
91,0.0199558325112,3533,132
92,0.0199868194759,3534,132
93,0.0200771093369,3535,132
94,0.0201063137501,3536,132
95,0.020163372159,3537,132
96,0.0201912242919,3538,132
97,0.0202455706894,3539,132
98,0.0203236788511,3540,132
99,0.0203734636307,3541,132
100,0.0203976668417,3542,132
101,0.0204675123096,3543,132
102,0.0204898696393,3544,132
103,0.0205331947654,3545,132
104,0.0205746609718,3546,132
105,0.0206333659589,3547,132
106,0.0206520035863,3548,132
107,0.0206878762692,3549,132
108,0.0207381732762,3550,132
109,0.0207693669945,3551,132
110,0.0207842607051,3552,132
111,0.0207986868918,3553,132
112,0.0208391603082,3554,132
113,0.0208517163992,3555,132
114,0.0208754278719,3556,132
115,0.0208972729743,3557,132
116,0.0209265518934,3558,132
117,0.0209437478334,3559,132
118,0.0209590941668,3560,132
119,0.0209725946188,3561,132
120,0.0209842547774,3562,132
121,0.0209940820932,3563,132
122,0.0210020858794,3564,132
123,0.0210082735866,3565,132
124,0.0210106894374,3566,132
125,0.0210141707212,3567,132
126,0.0210158582777,3568,132
127,0.0210157670081,3569,132
128,0.0210150573403,3570,132
129,0.021010287106,3571,132
130,0.0210078228265,3572,132
131,0.0209978278726,3573,132
132,0.0209890138358,3574,132
133,0.0209784992039,3575,132
134,0.0209726076573,3576,132
135,0.0209524203092,3577,132
136,0.0209368895739,3578,132
137,0.0209285095334,3579,132
138,0.0209009312093,3580,132
139,0.0208909325302,3581,132
140,0.0208697449416,3582,132
141,0.0208585597575,3583,132
142,0.0208226665854,3584,132
143,0.0207968149334,3585,132
144,0.0207694489509,3586,132
145,0.0207405909896,3587,132
146,0.0207102634013,3588,132
147,0.0206784829497,3589,132
148,0.0206452775747,3590,132
149,0.0206106659025,3591,132
150,0.0205746758729,3592,132
151,0.020537327975,3593,132
152,0.0205181520432,3594,132
153,0.0204788148403,3595,132
154,0.0204381849617,3596,132
155,0.0203962866217,3597,132
156,0.0203531440347,3598,132
157,0.0203087832779,3599,132
158,0.0202632285655,3600,132
159,0.0202165096998,3601,132
160,0.0201927218586,3602,132
161,0.0201196875423,3603,132
162,0.0200696401298,3604,132
163,0.0200442206115,3605,132
164,0.0199926029891,3606,132
165,0.0199132859707,3607,132
166,0.0198591910303,3608,132
167,0.019804155454,3609,132
168,0.0197482090443,3610,132
169,0.0196913797408,3611,132
170,0.0196626428515,3612,132
171,0.0196045469493,3613,132
172,0.0195456426591,3614,132
173,0.0194859597832,3615,132
174,0.0194255299866,3616,132
175,0.0193950440735,3617,132
176,0.0193335469812,3618,132
177,0.0192713793367,3619,132
178,0.019208567217,3620,132
179,0.0191132090986,3621,132
180,0.0190811343491,3622,132
181,0.0190165750682,3623,132
182,0.0189514942467,3624,132
183,0.0188529603183,3625,132
184,0.0188198871911,3626,132
185,0.0187534205616,3627,132
186,0.0186865534633,3628,132
187,0.0186529792845,3629,132
188,0.0185517370701,3630,132
189,0.0185178294778,3631,132
190,0.0184156764299,3632,132
191,0.018347254023,3633,132
192,0.0183129571378,3634,132
193,0.0182097721845,3635,132
194,0.0181407686323,3636,132
195,0.0180716346949,3637,132
196,0.0180023927242,3638,132
197,0.0179330706596,3639,132
198,0.0178637001663,3640,132
199,0.0178290046751,3641,132
200,0.0177249200642,3642,132
201,0.0176902376115,3643,132
202,0.0176555663347,3644,132
203,0.0175862722099,3645,132
204,0.0174825079739,3646,132
205,0.01741348207,3647,132
206,0.0173790249974,3648,132
207,0.0172759164125,3649,132
208,0.017207428813,3650,132
209,0.0171391684562,3651,132
210,0.0170711632818,3652,132
211,0.0170034356415,3653,132
212,0.0169696845114,3654,132
213,0.0168689116836,3655,132
214,0.016802161932,3656,132
215,0.0167357791215,3657,132
216,0.0167027339339,3658,132
217,0.0166369490325,3659,132
218,0.0165715925395,3660,132
219,0.0165390800685,3661,132
220,0.0164422392845,3662,132
221,0.0164101999253,3663,132
222,0.0163148380816,3664,132
223,0.0162519160658,3665,132
224,0.0161895398051,3666,132
225,0.0161277242005,3667,132
226,0.0160970333964,3668,132
227,0.0160058550537,3669,132
228,0.015945835039,3670,132
229,0.0158864464611,3671,132
230,0.0158277023584,3672,132
231,0.0157985780388,3673,132
232,0.0157696194947,3674,132
233,0.0156837683171,3675,132
234,0.015655497089,3676,132
235,0.0155717423186,3677,132
236,0.0155168063939,3678,132
237,0.0154626043513,3679,132
238,0.0154091482982,3680,132
239,0.0153827033937,3681,132
240,0.0153045179322,3682,132
241,0.0152788423002,3683,132
242,0.0152029925957,3684,132
243,0.0151534182951,3685,132
244,0.0151046458632,3686,132
245,0.0150566846132,3687,132
246,0.0150330103934,3688,132
247,0.0150095410645,3689,132
248,0.0149403717369,3690,132
249,0.0149177303538,3691,132
250,0.0148510616273,3692,132
251,0.0148076666519,3693,132
252,0.0147862862796,3694,132
253,0.0147234192118,3695,132
254,0.0146825714037,3696,132
255,0.0146425785497,3697,132
256,0.0146229024976,3698,132
257,0.0145841930062,3699,132
258,0.0145277362317,3700,132
259,0.0144911697134,3701,132
260,0.014455460012,3702,132
261,0.0144379260018,3703,132
262,0.0144034996629,3704,132
263,0.0143866064027,3705,132
264,0.0143372034654,3706,132
265,0.0143053289503,3707,132
266,0.0142742982134,3708,132
267,0.0142441075295,3709,132
268,0.014214752242,3710,132
269,0.0141862276942,3711,132
270,0.0141722755507,3712,132
271,0.0141316503286,3713,132
272,0.0141185158864,3714,132
273,0.0140803242102,3715,132
274,0.0140558620915,3716,132
275,0.0140439290553,3717,132
276,0.0140206515789,3718,132
277,0.0139981526881,3719,132
278,0.0139764221385,3720,132
279,0.0139554515481,3721,132
280,0.0139352306724,3722,132
281,0.0139157492667,3723,132
282,0.013896998018,3724,132
283,0.0138789638877,3725,132
284,0.0138616347685,3726,132
285,0.013845000416,3727,132
286,0.0138290477917,3728,132
287,0.0138213234022,3729,132
288,0.0137991374359,3730,132
289,0.0137851536274,3731,132
290,0.013771799393,3732,132
291,0.0137653537095,3733,132
292,0.0137590598315,3734,132
293,0.0137469209731,3735,132
294,0.0137353679165,3736,132
295,0.0137191023678,3737,132
296,0.0137139568105,3738,132
297,0.0137040680274,3739,132
298,0.0136947035789,3740,132
299,0.0136858467013,3741,132
300,0.0136734750122,3742,132
301,0.01366581209,3743,132
302,0.0136585980654,3744,132
303,0.0136551540345,3745,132
304,0.0136485788971,3746,132
305,0.0136394686997,3747,132
306,0.0136338705197,3748,132
307,0.0136312069371,3749,132
308,0.0136261405423,3750,132
309,0.0136237330735,3751,132
310,0.0136169809848,3752,132
311,0.0136128505692,3753,132
312,0.0136108892038,3754,132
313,0.0136071620509,3755,132
314,0.0136020248756,3756,132
315,0.0135988742113,3757,132
316,0.0135959200561,3758,132
317,0.0135931419209,3759,132
318,0.0135905193165,3760,132
319,0.0135880326852,3761,132
320,0.0135868350044,3762,132
321,0.0135833900422,3763,132
322,0.0135822826996,3764,132
323,0.013580115512,3765,132
324,0.013579050079,3766,132
325,0.0135758956894,3767,132
326,0.0135748498142,3768,132
327,0.0135727506131,3769,132
328,0.0135695468634,3770,132
329,0.0135673433542,3771,132
330,0.0135650625452,3772,132
331,0.0135626830161,3773,132
332,0.0135601852089,3774,132
333,0.0135575467721,3775,132
334,0.013554749079,3776,132
335,0.0135517697781,3777,132
336,0.0135502070189,3778,132
337,0.0135469185188,3779,132
338,0.0135433990508,3780,132
339,0.0135415457189,3781,132
340,0.0135355833918,3782,132
341,0.0135312462226,3783,132
342,0.0135265970603,3784,132
343,0.0135241486132,3785,132
344,0.0135162789375,3786,132
345,0.0135134728625,3787,132
346,0.0135044688359,3788,132
347,0.0134979560971,3789,132
348,0.0134910112247,3790,132
349,0.0134873706847,3791,132
350,0.013475747779,3792,132
351,0.0134673900902,3793,132
352,0.013463021256,3794,132
353,0.0134538924322,3795,132
354,0.0134442262352,3796,132
355,0.0134340031072,3797,132
356,0.013423204422,3798,132
357,0.0134175829589,3799,132
358,0.0133998077363,3800,132
359,0.0133871734142,3801,132
360,0.0133806150407,3802,132
361,0.0133599443361,3803,132
362,0.0133453132585,3804,132
363,0.0133299799636,3805,132
364,0.013313928619,3806,132
365,0.0132971424609,3807,132
366,0.0132796037942,3808,132
367,0.0132705476135,3809,132
368,0.0132518494502,3810,132
369,0.0132422037423,3811,132
370,0.0132120540366,3812,132
371,0.0132015943527,3813,132
372,0.0131800491363,3814,132
373,0.0131461312994,3815,132
374,0.0131343919784,3816,132
375,0.0131102511659,3817,132
376,0.013072357513,3818,132
377,0.0130459507927,3819,132
378,0.0130186118186,3820,132
379,0.0130045888945,3821,132
380,0.0129610821605,3822,132
381,0.0129308635369,3823,132
382,0.0129153849557,3824,132
383,0.0128836799413,3825,132
384,0.0128509681672,3826,132
385,0.0128342304379,3827,132
386,0.0127824712545,3828,132
387,0.0127646978945,3829,132
388,0.0127283604816,3830,132
389,0.0126718562096,3831,132
390,0.0126524828374,3832,132
391,0.0125927263871,3833,132
392,0.0125515116379,3834,132
393,0.0125304860994,3835,132
394,0.0124657228589,3836,132
395,0.0124211292714,3837,132
396,0.0123753892258,3838,132
397,0.0123520866036,3839,132
398,0.0123046068475,3840,132
399,0.0122559573501,3841,132
400,0.0122311897576,3842,132
401,0.0121551062912,3843,132
402,0.0121028879657,3844,132
403,0.0120494626462,3845,132
404,0.0120222941041,3846,132
405,0.0119389556348,3847,132
406,0.0119105624035,3848,132
407,0.0118528474122,3849,132
408,0.0117938900366,3850,132
409,0.0117336818948,3851,132
410,0.0116722164676,3852,132
411,0.0115776481107,3853,132
412,0.0115454895422,3854,132
413,0.0114802140743,3855,132
414,0.0114136571065,3856,132
415,0.0113458130509,3857,132
416,0.0113114053383,3858,132
417,0.0112062375993,3859,132
418,0.0111344978213,3860,132
419,0.0110614495352,3861,132
420,0.0109870880842,3862,132
421,0.0109114097431,3863,132
422,0.0108344107866,3864,132
423,0.0107560874894,3865,132
424,0.0106764361262,3866,132
425,0.0105954539031,3867,132
426,0.0105131370947,3868,132
427,0.0104294847697,3869,132
428,0.01038715709,3870,132
429,0.0103444941342,3871,132
430,0.0102144926786,3872,132
431,0.0101261446252,3873,132
432,0.0100814662874,3874,132
433,-0.0100674536079,4005,132
434,-0.0101615060121,4006,132
435,-0.010349274613,4007,132
436,-0.0105365710333,4008,132
437,-0.0106300348416,4009,132
438,-0.0109096458182,4010,132
439,-0.0110025778413,4011,132
440,-0.0111880134791,4012,132
441,-0.0113728558645,4013,132
442,-0.0116489445791,4014,132
443,-0.0117406472564,4015,132
444,-0.0120147271082,4016,132
445,-0.0121965548024,4017,132
446,-0.0123776355758,4018,132
447,-0.0124678872526,4019,132
448,-0.0127374455333,4020,132
449,-0.0128268878907,4021,132
450,-0.0130051355809,4022,132
451,-0.0131825106218,4023,132
452,-0.0133589841425,4024,132
453,-0.0135345291346,4025,132
454,-0.0137091167271,4026,132
455,-0.0138827199116,4027,132
456,-0.0140553116798,4028,132
457,-0.0142268622294,4029,132
458,-0.014397344552,4030,132
459,-0.0145667297766,4031,132
460,-0.0147349899635,4032,132
461,-0.0148186897859,4033,132
462,-0.0150680262595,4034,132
463,-0.015150539577,4035,132
464,-0.0153146469966,4036,132
465,-0.0154775055125,4037,132
466,-0.0155584579334,4038,132
467,-0.0157993659377,4039,132
468,-0.0159583147615,4040,132
469,-0.0161159038544,4041,132
470,-0.0162721090019,4042,132
471,-0.0164269022644,4043,132
472,-0.0165802594274,4044,132
473,-0.0167321506888,4045,132
474,-0.0168075375259,4046,132
