,amplitude,tstep,vfp
0,-0.0100611988455,4287,131
1,-0.0101491035894,4288,131
2,-0.0102354288101,4289,131
3,-0.0103201596066,4290,131
4,-0.0103619219735,4291,131
5,-0.0104442304,4292,131
6,-0.0105249080807,4293,131
7,-0.0105646308511,4294,131
8,-0.010642837733,4295,131
9,-0.0107193831354,4296,131
10,-0.010831062682,4297,131
11,-0.0109034096822,4298,131
12,-0.0109389489517,4299,131
13,-0.0110087515786,4300,131
14,-0.0110768470913,4301,131
15,-0.0111757814884,4302,131
16,-0.0112395910546,4303,131
17,-0.0113016795367,4304,131
18,-0.0113320769742,4305,131
19,-0.01142068021,4306,131
20,-0.0114775905386,4307,131
21,-0.011505397968,4308,131
22,-0.0115327741951,4309,131
23,-0.0115862330422,4310,131
24,-0.0116379680112,4311,131
25,-0.0117123452947,4312,131
26,-0.0117597859353,4313,131
27,-0.0118055185303,4314,131
28,-0.0118495486677,4315,131
29,-0.0118918828666,4316,131
30,-0.0119325295091,4317,131
31,-0.0119714969769,4318,131
32,-0.0119903543964,4319,131
33,-0.0120444372296,4320,131
34,-0.0120616387576,4321,131
35,-0.0121107911691,4322,131
36,-0.0121263619512,4323,131
37,-0.0121415285394,4324,131
38,-0.0121706584468,4325,131
39,-0.0121981976554,4326,131
40,-0.012236552313,4327,131
41,-0.0122601790354,4328,131
42,-0.0122822718695,4329,131
43,-0.0123028475791,4330,131
44,-0.0123125724494,4331,131
45,-0.0123395258561,4332,131
46,-0.0123556694016,4333,131
47,-0.0123632019386,4334,131
48,-0.0123836696148,4335,131
49,-0.0123955700547,4336,131
50,-0.0124061023816,4337,131
51,-0.0124152889475,4338,131
52,-0.0124193849042,4339,131
53,-0.0124231539667,4340,131
54,-0.0124297216535,4341,131
55,-0.0124350199476,4342,131
56,-0.0124406404793,4343,131
57,-0.0124428737909,4344,131
58,-0.0124435471371,4345,131
59,-0.0124438330531,4346,131
60,-0.0124426139519,4347,131
61,-0.0124403005466,4348,131
62,-0.0124387415126,4349,131
63,-0.0124348402023,4350,131
64,-0.0124299162999,4351,131
65,-0.0124206794426,4352,131
66,-0.0124133313075,4353,131
67,-0.0124093117192,4354,131
68,-0.0124050667509,4355,131
69,-0.0123959155753,4356,131
70,-0.0123805934563,4357,131
71,-0.0123693617061,4358,131
72,-0.0123634524643,4359,131
73,-0.0123510668054,4360,131
74,-0.0123379509896,4361,131
75,-0.0123241376132,4362,131
76,-0.0123096574098,4363,131
77,-0.0122945429757,4364,131
78,-0.012278825976,4365,131
79,-0.0122541934252,4366,131
80,-0.0122371129692,4367,131
81,-0.0122195435688,4368,131
82,-0.0122105851769,4369,131
83,-0.0121923396364,4370,131
84,-0.0121736843139,4371,131
85,-0.0121546527371,4372,131
86,-0.0121352747083,4373,131
87,-0.0121155828238,4374,131
88,-0.0120956078172,4375,131
89,-0.0120855243877,4376,131
90,-0.012054936029,4377,131
91,-0.0120342997834,4378,131
92,-0.0120135070756,4379,131
93,-0.0119925867766,4380,131
94,-0.0119715696201,4381,131
95,-0.011950484477,4382,131
96,-0.011939926073,4383,131
97,-0.0119187962264,4384,131
98,-0.0118976747617,4385,131
99,-0.0118765886873,4386,131
100,-0.0118555668741,4387,131
101,-0.0118346391246,4388,131
102,-0.0118138333783,4389,131
103,-0.0118034845218,4390,131
104,-0.0117829125375,4391,131
105,-0.0117524163797,4392,131
106,-0.0117323677987,4393,131
107,-0.0117125753313,4394,131
108,-0.0116930631921,4395,131
109,-0.0116834212095,4396,131
110,-0.0116643784568,4397,131
111,-0.0116456793621,4398,131
112,-0.0116273472086,4399,131
113,-0.0116183264181,4400,131
114,-0.011591879651,4401,131
115,-0.0115747889504,4402,131
116,-0.0115581564605,4403,131
117,-0.0115420045331,4404,131
118,-0.0115341152996,4405,131
119,-0.011511224322,4406,131
120,-0.0114966370165,4407,131
121,-0.0114826103672,4408,131
122,-0.0114691630006,4409,131
123,-0.0114563154057,4410,131
124,-0.011444083415,4411,131
125,-0.0114324847236,4412,131
126,-0.0114269275218,4413,131
127,-0.0114163095132,4414,131
128,-0.011406365782,4415,131
129,-0.0113971112296,4416,131
130,-0.011388560757,4417,131
131,-0.0113807274029,4418,131
132,-0.0113736269996,4419,131
133,-0.0113672697917,4420,131
134,-0.011361669749,4421,131
135,-0.0113568399101,4422,131
136,-0.0113527914509,4423,131
137,-0.0113510629162,4424,131
138,-0.0113470768556,4425,131
139,-0.011346151121,4426,131
140,-0.0113446032628,4427,131
141,-0.0113446051255,4428,131
142,-0.0113449189812,4429,131
143,-0.0113461781293,4430,131
144,-0.0113471252844,4431,131
145,-0.0113512435928,4432,131
146,-0.0113550620154,4433,131
147,-0.0113597456366,4434,131
148,-0.0113652991131,4435,131
149,-0.0113717261702,4436,131
150,-0.0113790314645,4437,131
151,-0.0113830137998,4438,131
152,-0.0113916406408,4439,131
153,-0.0114062419161,4440,131
154,-0.0114170862362,4441,131
155,-0.0114228408784,4442,131
156,-0.0114414384589,4443,131
157,-0.0114480825141,4444,131
158,-0.0114549491554,4445,131
159,-0.0114768808708,4446,131
160,-0.0114926127717,4447,131
161,-0.0115092294291,4448,131
162,-0.0115178702399,4449,131
163,-0.0115358121693,4450,131
164,-0.0115643730387,4451,131
165,-0.0115845082328,4452,131
166,-0.011594902724,4453,131
167,-0.0116273863241,4454,131
168,-0.0116501208395,4455,131
169,-0.0116737093776,4456,131
170,-0.0116981491446,4457,131
171,-0.0117234326899,4458,131
172,-0.0117495534942,4459,131
173,-0.0117629254237,4460,131
174,-0.0117902886122,4461,131
175,-0.0118184713647,4462,131
176,-0.0118474643677,4463,131
177,-0.0118622621521,4464,131
178,-0.0119078494608,4465,131
179,-0.0119392229244,4466,131
180,-0.0119552006945,4467,131
181,-0.0119877327234,4468,131
182,-0.0120210237801,4469,131
183,-0.0120723638684,4470,131
184,-0.0121075073257,4471,131
185,-0.0121253496036,4472,131
186,-0.0121615715325,4473,131
187,-0.0122172180563,4474,131
188,-0.0122361108661,4475,131
189,-0.0122744049877,4476,131
190,-0.0123133631423,4477,131
191,-0.0123529732227,4478,131
192,-0.0123932221904,4479,131
193,-0.0124135818332,4480,131
194,-0.0124755790457,4481,131
195,-0.0125176589936,4482,131
196,-0.0125389173627,4483,131
197,-0.0125818625093,4484,131
198,-0.0126473205164,4485,131
199,-0.0126916319132,4486,131
200,-0.0127364620566,4487,131
201,-0.0127590661868,4488,131
202,-0.0128276115283,4489,131
203,-0.0128506971523,4490,131
204,-0.0128972120583,4491,131
205,-0.0129441712052,4492,131
206,-0.0129915550351,4493,131
207,-0.0130154006183,4494,131
208,-0.0130875296891,4495,131
209,-0.0131117617711,4496,131
210,-0.0131604941562,4497,131
211,-0.013234234415,4498,131
212,-0.0132589749992,4499,131
213,-0.0133336465806,4500,131
214,-0.0133837778121,4501,131
215,-0.0134341660887,4502,131
216,-0.0134847927839,4503,131
217,-0.0135356364772,4504,131
218,-0.0135611342266,4505,131
219,-0.0136122675613,4506,131
220,-0.01366356574,4507,131
221,-0.0137150101364,4508,131
222,-0.0137665783986,4509,131
223,-0.0138182500377,4510,131
224,-0.0138700036332,4511,131
225,-0.0139218177646,4512,131
226,-0.0139736700803,4513,131
227,-0.0140255391598,4514,131
228,-0.0140774026513,4515,131
229,-0.0141033260152,4516,131
230,-0.0141810243949,4517,131
231,-0.0142327360809,4518,131
232,-0.0142585579306,4519,131
233,-0.014310117811,4520,131
234,-0.0143358502537,4521,131
235,-0.0144128222018,4522,131
236,-0.0144383953884,4523,131
237,-0.0145148197189,4524,131
238,-0.0145654939115,4525,131
239,-0.0146159203723,4526,131
240,-0.0146660758182,4527,131
241,-0.0146910436451,4528,131
242,-0.014740745537,4529,131
243,-0.014790115878,4530,131
244,-0.0148634975776,4531,131
245,-0.0148877659813,4532,131
246,-0.0149599518627,4533,131
247,-0.0150075294077,4534,131
248,-0.0150311449543,4535,131
249,-0.0150780156255,4536,131
250,-0.0151012642309,4537,131
251,-0.0151702240109,4538,131
252,-0.0152155123651,4539,131
253,-0.0152602251619,4540,131
254,-0.0153043363243,4541,131
255,-0.0153478207067,4542,131
256,-0.0153906550258,4543,131
257,-0.0154328141361,4544,131
258,-0.0154742728919,4545,131
259,-0.0155150070786,4546,131
260,-0.0155549906194,4547,131
261,-0.0155942020938,4548,131
262,-0.0156326144934,4549,131
263,-0.0156515147537,4550,131
264,-0.0156886875629,4551,131
265,-0.0157249998301,4552,131
266,-0.0157604292035,4553,131
267,-0.0157949514687,4554,131
268,-0.0158285424113,4555,131
269,-0.0158449839801,4556,131
270,-0.0158771369606,4557,131
271,-0.015923505649,4558,131
272,-0.0159531421959,4559,131
273,-0.0159817319363,4560,131
274,-0.0159956272691,4561,131
275,-0.0160226039588,4562,131
276,-0.0160609968007,4563,131
277,-0.0160732287914,4564,131
278,-0.0160968322307,4565,131
279,-0.0161192696542,4566,131
280,-0.0161405168474,4567,131
281,-0.0161605533212,4568,131
282,-0.0161793604493,4569,131
283,-0.0161969177425,4570,131
284,-0.0162052214146,4571,131
285,-0.0162281990051,4572,131
286,-0.0162352081388,4573,131
287,-0.0162542443722,4574,131
288,-0.016265258193,4575,131
289,-0.01627025567,4576,131
290,-0.0162792149931,4577,131
291,-0.0162900425494,4578,131
292,-0.0162954963744,4579,131
293,-0.0162976887077,4580,131
294,-0.0163009930402,4581,131
295,-0.0163021013141,4582,131
296,-0.0163032244891,4583,131
297,-0.0163021218032,4584,131
298,-0.0162995252758,4585,131
299,-0.0162954200059,4586,131
300,-0.0162897929549,4587,131
301,-0.0162826310843,4588,131
302,-0.0162739250809,4589,131
303,-0.0162636637688,4590,131
304,-0.0162518359721,4591,131
305,-0.0162384323776,4592,131
306,-0.0162311363965,4593,131
307,-0.0162153560668,4594,131
308,-0.0161886885762,4595,131
309,-0.0161789972335,4596,131
310,-0.016158407554,4597,131
311,-0.0161362048239,4598,131
312,-0.0161244962364,4599,131
313,-0.0160998608917,4600,131
314,-0.0160598587245,4601,131
315,-0.0160311535001,4602,131
316,-0.0160008165985,4603,131
317,-0.0159850344062,4604,131
318,-0.0159352384508,4605,131
319,-0.0158999972045,4606,131
320,-0.0158631242812,4607,131
321,-0.0158246196806,4608,131
322,-0.0158047564328,4609,131
323,-0.0157427303493,4610,131
324,-0.0157212428749,4611,131
325,-0.015677055344,4612,131
326,-0.0156543552876,4613,131
327,-0.0155838429928,4614,131
328,-0.0155595373362,4615,131
329,-0.0155097302049,4616,131
330,-0.015432045795,4617,131
331,-0.015378287062,4618,131
332,-0.0153508195654,4619,131
333,-0.0152660878375,4620,131
334,-0.0152076715603,4621,131
335,-0.0151477279142,4622,131
336,-0.0150862699375,4623,131
337,-0.0150233116001,4624,131
338,-0.0149588696659,4625,131
339,-0.0149260973558,4626,131
340,-0.0148594593629,4627,131
341,-0.0148255983368,4628,131
342,-0.0147218741477,4629,131
343,-0.0146509641781,4630,131
344,-0.0146149881184,4631,131
345,-0.0145050082356,4632,131
346,-0.0144300051033,4633,131
347,-0.0143536804244,4634,131
348,-0.0142760584131,4635,131
349,-0.0141971623525,4636,131
350,-0.014117016457,4637,131
351,-0.0140356458724,4638,131
352,-0.0139945093542,4639,131
353,-0.0138693377376,4640,131
354,-0.0138270370662,4641,131
355,-0.0137415928766,4642,131
356,-0.013655048795,4643,131
357,-0.0136113725603,4644,131
358,-0.0134787736461,4645,131
359,-0.0133891049773,4646,131
360,-0.0132984574884,4647,131
361,-0.0132068619132,4648,131
362,-0.0131607195362,4649,131
363,-0.0130209615454,4650,131
364,-0.0129267238081,4651,131
365,-0.0128792971373,4652,131
366,-0.0127358427271,4653,131
367,-0.0126876477152,4654,131
368,-0.0125419935212,4655,131
369,-0.01249310188,4656,131
370,-0.0123948352411,4657,131
371,-0.0123454695567,4658,131
372,-0.012196498923,4659,131
373,-0.0120965065435,4660,131
374,-0.0120463212952,4661,131
375,-0.0118950651959,4662,131
376,-0.0118444301188,4663,131
377,-0.0116919446737,4664,131
378,-0.0115898549557,4665,131
379,-0.0114874653518,4666,131
380,-0.0113848168403,4667,131
381,-0.0112819531932,4668,131
382,-0.0111789125949,4669,131
383,-0.0111273387447,4670,131
384,-0.0110241118819,4671,131
385,-0.0109724691138,4672,131
386,-0.01086915005,4673,131
387,-0.0107658226043,4674,131
388,-0.0106109054759,4675,131
389,-0.0105593074113,4676,131
390,-0.0104047097266,4677,131
391,-0.0103018628433,4678,131
392,-0.0101992376149,4679,131
393,-0.0100968787447,4680,131
394,-0.0100458115339,4681,131
395,0.0100193619728,5342,131
396,0.0100584076717,5343,131
397,0.0100779300556,5344,131
398,0.010136494413,5345,131
399,0.010175537318,5346,131
400,0.0101950587705,5347,131
401,0.0102341035381,5348,131
402,0.0102731483057,5349,131
403,0.0103317201138,5350,131
404,0.010370772332,5351,131
405,0.0103902993724,5352,131
406,0.0104098282754,5353,131
407,0.0104684233665,5354,131
408,0.0105074951425,5355,131
409,0.0105270342901,5356,131
410,0.0105856638402,5357,131
411,0.0106247635558,5358,131
412,0.010663873516,5359,131
413,0.0107029955834,5360,131
414,0.0107421316206,5361,131
415,0.0107812806964,5362,131
416,0.0108008608222,5363,131
417,0.0108400341123,5364,131
418,0.0108988266438,5365,131
419,0.0109184328467,5366,131
420,0.0109576601535,5367,131
421,0.0109772812575,5368,131
422,0.0110165383667,5369,131
423,0.0110754640773,5370,131
424,0.0111147770658,5371,131
425,0.0111541124061,5372,131
426,0.0111934710294,5373,131
427,0.0112328538671,5374,131
428,0.0112525550649,5375,131
429,0.0112919751555,5376,131
430,0.0113511541858,5377,131
431,0.0113708926365,5378,131
432,0.0114301480353,5379,131
433,0.0114696836099,5380,131
434,0.0115092452615,5381,131
435,0.0115290349349,5382,131
436,0.0115686347708,5383,131
437,0.0116082597524,5384,131
438,0.011647908017,5385,131
439,0.0116875804961,5386,131
440,0.0117074251175,5387,131
441,0.011766991578,5388,131
442,0.0118067264557,5389,131
443,0.0118266008794,5390,131
444,0.011886251159,5391,131
445,0.0119061423466,5392,131
446,0.0119459358975,5393,131
447,0.0120056476444,5394,131
448,0.0120255565271,5395,131
449,0.0120852924883,5396,131
450,0.0121052060276,5397,131
451,0.0121450331062,5398,131
452,0.0121649466455,5399,131
453,0.0122047709301,5400,131
0,0.0100000323728,3426,132
1,0.0100636761636,3427,132
2,0.0102553907782,3428,132
3,0.0103838294744,3429,132
4,0.0104482313618,3430,132
5,0.0105773853138,3431,132
6,0.0106421336532,3432,132
7,0.0107719600201,3433,132
8,0.0109674856067,3434,132
9,0.0110983327031,3435,132
10,0.0112295523286,3436,132
11,0.011361123994,3437,132
12,0.0114930272102,3438,132
13,0.011559096165,3439,132
14,0.0116914566606,3440,132
15,0.0118240946904,3441,132
16,0.0120235243812,3442,132
17,0.0121567621827,3443,132
18,0.0122234579176,3444,132
19,0.0123569881544,3445,132
20,0.0124906860292,3446,132
21,0.0126245273277,3447,132
22,0.0127584896982,3448,132
23,0.0128925507888,3449,132
24,0.0130266873166,3450,132
25,0.0131608759984,3451,132
26,0.0132950916886,3452,132
27,0.0134293120354,3453,132
28,0.0135635137558,3454,132
29,0.0136305987835,3455,132
30,0.0137647241354,3456,132
31,0.0139657557011,3457,132
32,0.0140327122062,3458,132
33,0.0141665255651,3459,132
34,0.0143669527024,3460,132
35,0.0144336717203,3461,132
36,0.014566953294,3462,132
37,0.0147000094876,3463,132
38,0.0148328132927,3464,132
39,0.0149653414264,3465,132
40,0.0150314942002,3466,132
41,0.0152294710279,3467,132
42,0.0153610222042,3468,132
43,0.0154921980575,3469,132
44,0.0155576374382,3470,132
45,0.0157533250749,3471,132
46,0.0158183351159,3472,132
47,0.0160126555711,3473,132
48,0.0161415860057,3474,132
49,0.0162058565766,3475,132
50,0.0163339916617,3476,132
51,0.0164615660906,3477,132
52,0.0165885575116,3478,132
53,0.0167149398476,3479,132
54,0.0168406888843,3480,132
55,0.0169033203274,3481,132
56,0.0170280765742,3482,132
57,0.017152139917,3483,132
58,0.0173368863761,3484,132
59,0.0173980947584,3485,132
60,0.0175805687904,3486,132
61,0.0177012253553,3487,132
62,0.0178210604936,3488,132
63,0.0178806632757,3489,132
64,0.0179992243648,3490,132
65,0.0181169081479,3491,132
66,0.0182336922735,3492,132
67,0.0183495525271,3493,132
68,0.0184644702822,3494,132
69,0.0185784213245,3495,132
70,0.0186913851649,3496,132
71,0.0188033413142,3497,132
72,0.0189142692834,3498,132
73,0.0189693421125,3499,132
74,0.0191329568624,3500,132
75,0.0192406773567,3501,132
76,0.019294122234,3502,132
77,0.0194001719356,3503,132
78,0.01955710724,3504,132
79,0.0196088403463,3505,132
80,0.01971141994,3506,132
81,0.0198128074408,3507,132
82,0.0199129842222,3508,132
83,0.0200119297951,3509,132
84,0.020060935989,3510,132
85,0.0202060639858,3511,132
86,0.0203012209386,3512,132
87,0.0203950852156,3513,132
88,0.0204876344651,3514,132
89,0.0205334145576,3515,132
90,0.0206687469035,3516,132
91,0.0207131803036,3517,132
92,0.020844431594,3518,132
93,0.0209302045405,3519,132
94,0.0210145805031,3520,132
95,0.021097548306,3521,132
96,0.0211385004222,3522,132
97,0.0212193299085,3523,132
98,0.02129871957,3524,132
99,0.0213766600937,3525,132
100,0.0214150827378,3526,132
101,0.0214908253402,3527,132
102,0.0216016676277,3528,132
103,0.0216736998409,3529,132
104,0.021709151566,3530,132
105,0.0218132473528,3531,132
106,0.0218471884727,3532,132
107,0.0219467263669,3533,132
108,0.0220111720264,3534,132
109,0.0220428165048,3535,132
110,0.0221049487591,3536,132
111,0.0221655312926,3537,132
112,0.02222456038,3538,132
113,0.0222820304334,3539,132
114,0.0223379358649,3540,132
115,0.0223922729492,3541,132
116,0.022445037961,3542,132
117,0.022496227175,3543,132
118,0.0225458387285,3544,132
119,0.0225938670337,3545,132
120,0.0226172897965,3546,132
121,0.0226851813495,3547,132
122,0.0227284599096,3548,132
123,0.0227701552212,3549,132
124,0.0228102654219,3550,132
125,0.0228297263384,3551,132
126,0.0228674616665,3552,132
127,0.0229036156088,3553,132
128,0.0229211002588,3554,132
129,0.022971181199,3555,132
130,0.0229870863259,3556,132
131,0.0230324435979,3557,132
132,0.0230607204139,3558,132
133,0.0230874344707,3559,132
134,0.0231002066284,3560,132
135,0.0231361817569,3561,132
136,0.0231582280248,3562,132
137,0.02317873016,3563,132
138,0.0231884028763,3564,132
139,0.0232066009194,3565,132
140,0.0232232715935,3566,132
141,0.0232384223491,3567,132
142,0.0232454296201,3568,132
143,0.0232583135366,3569,132
144,0.0232696998864,3570,132
145,0.0232839845121,3571,132
146,0.0232916604728,3572,132
147,0.0232949480414,3573,132
148,0.0233026184142,3574,132
149,0.023305920884,3575,132
150,0.0233077909797,3576,132
151,0.0233081895858,3577,132
152,0.0233072675765,3578,132
153,0.0233062561601,3579,132
154,0.0233011413366,3580,132
155,0.0232987459749,3581,132
156,0.0232929326594,3582,132
157,0.0232895165682,3583,132
158,0.0232772547752,3584,132
159,0.0232674181461,3585,132
160,0.0232562683523,3586,132
161,0.0232438202947,3587,132
162,0.0232300888747,3588,132
163,0.0232227463275,3589,132
164,0.0231988318264,3590,132
165,0.0231902394444,3591,132
166,0.0231626294553,3592,132
167,0.0231427121907,3593,132
168,0.0231216084212,3594,132
169,0.0230993311852,3595,132
170,0.0230877604336,3596,132
171,0.0230637602508,3597,132
172,0.0230386331677,3598,132
173,0.0230123959482,3599,132
174,0.0229988656938,3600,132
175,0.0229566600174,3601,132
176,0.0229420606047,3602,132
177,0.0228966977447,3603,132
178,0.0228651780635,3604,132
179,0.0228326600045,3605,132
180,0.0227991603315,3606,132
181,0.0227646976709,3607,132
182,0.0227292943746,3608,132
183,0.0226929634809,3609,132
184,0.0226557292044,3610,132
185,0.0226367805153,3611,132
186,0.0225982293487,3612,132
187,0.0225588213652,3613,132
188,0.0225185789168,3614,132
189,0.0224981512874,3615,132
190,0.0224356707186,3616,132
191,0.022393045947,3617,132
192,0.0223496668041,3618,132
193,0.0223277006298,3619,132
194,0.0222607254982,3620,132
195,0.0222380496562,3621,132
196,0.0221690069884,3622,132
197,0.0221456624568,3623,132
198,0.0220746770501,3624,132
199,0.0220265835524,3625,132
200,0.0219778977334,3626,132
201,0.0219533406198,3627,132
202,0.0219038054347,3628,132
203,0.0218788348138,3629,132
204,0.0218031350523,3630,132
205,0.0217520389706,3631,132
206,0.0217004604638,3632,132
207,0.0216484237462,3633,132
208,0.0216222368181,3634,132
209,0.0215695463121,3635,132
210,0.0214897468686,3636,132
211,0.0214629545808,3637,132
212,0.0213820263743,3638,132
213,0.0213276445866,3639,132
214,0.0213003307581,3640,132
215,0.0212454739958,3641,132
216,0.0211626440287,3642,132
217,0.0211348999292,3643,132
218,0.0210792198777,3644,132
219,0.0210512895137,3645,132
220,0.0209671724588,3646,132
221,0.0209390316159,3647,132
222,0.0208826046437,3648,132
223,0.0208260100335,3649,132
224,0.0207692608237,3650,132
225,0.0207123756409,3651,132
226,0.0206268317997,3652,132
227,0.0205982681364,3653,132
228,0.0205124616623,3654,132
229,0.0204551834613,3655,132
230,0.0204265285283,3656,132
