,amplitude,tstep,vfp
0,-0.0100517692044,4309,131
1,-0.0101631684229,4310,131
2,-0.0103289987892,4311,131
3,-0.01043869555,4312,131
4,-0.01049328316,4313,131
5,-0.0106559926644,4314,131
6,-0.0107635762542,4315,131
7,-0.0108704399318,4316,131
8,-0.010976575315,4317,131
9,-0.0110293682665,4318,131
10,-0.0111866341904,4319,131
11,-0.0112905437127,4320,131
12,-0.0113936979324,4321,131
13,-0.0114960912615,4322,131
14,-0.0115470010787,4323,131
15,-0.0115977181122,4324,131
16,-0.0117487097159,4325,131
17,-0.0118483966216,4326,131
18,-0.0119472993538,4327,131
19,-0.0120454132557,4328,131
20,-0.0121427336708,4329,131
21,-0.0121910953894,4330,131
22,-0.0123349810019,4331,131
23,-0.0124299004674,4332,131
24,-0.012477057986,4333,131
25,-0.0126173170283,4334,131
26,-0.0126636652276,4335,131
27,-0.0128014879301,4336,131
28,-0.0128470221534,4337,131
29,-0.0129374768585,4338,131
30,-0.0130271138623,4339,131
31,-0.0130716254935,4340,131
32,-0.0131600350142,4341,131
33,-0.0132476240396,4342,131
34,-0.0133343953639,4343,131
35,-0.0134630147368,4344,131
36,-0.0135054774582,4345,131
37,-0.0136316381395,4346,131
38,-0.0137147223577,4347,131
39,-0.013755957596,4348,131
40,-0.0138378180563,4349,131
41,-0.0139188636094,4350,131
42,-0.0139990951866,4351,131
43,-0.0141179235652,4352,131
44,-0.0141571294516,4353,131
45,-0.0142349358648,4354,131
46,-0.0142735382542,4355,131
47,-0.0143881458789,4356,131
48,-0.0144635541365,4357,131
49,-0.0145381698385,4358,131
50,-0.0145751815289,4359,131
51,-0.0146486144513,4360,131
52,-0.0147572970018,4361,131
53,-0.0147931361571,4362,131
54,-0.0148642333224,4363,131
55,-0.0149694373831,4364,131
56,-0.0150041235611,4365,131
57,-0.0151070458815,4366,131
58,-0.0151409767568,4367,131
59,-0.01520827692,4368,131
60,-0.0152748357505,4369,131
61,-0.0153406569734,4370,131
62,-0.0154057480395,4371,131
63,-0.0154380202293,4372,131
64,-0.01553376019,4373,131
65,-0.0155966952443,4374,131
66,-0.0156589262187,4375,131
67,-0.015689779073,4376,131
68,-0.0157812982798,4377,131
69,-0.0158414561301,4378,131
70,-0.0159009359777,4379,131
71,-0.015959745273,4380,131
72,-0.0160178970546,4381,131
73,-0.0160753913224,4382,131
74,-0.0161322392523,4383,131
75,-0.0161604247987,4384,131
76,-0.0162163190544,4385,131
77,-0.0162715855986,4386,131
78,-0.0163262356073,4387,131
79,-0.0163533315063,4388,131
80,-0.0164337102324,4389,131
81,-0.016460204497,4390,131
82,-0.0165388081223,4391,131
83,-0.0165904872119,4392,131
84,-0.0166161134839,4393,131
85,-0.0166669413447,4394,131
86,-0.01674214378,4395,131
87,-0.0167915988714,4396,131
88,-0.0168405212462,4397,131
89,-0.0168889164925,4398,131
90,-0.0169129185379,4399,131
91,-0.0169367920607,4400,131
92,-0.0170076582581,4401,131
93,-0.0170542784035,4402,131
94,-0.0171004123986,4403,131
95,-0.0171233005822,4404,131
96,-0.0171912536025,4405,131
97,-0.0172359794378,4406,131
98,-0.0172802507877,4407,131
99,-0.0173240769655,4408,131
100,-0.0173458252102,4409,131
101,-0.0174104310572,4410,131
102,-0.0174317546189,4411,131
103,-0.0174951087683,4412,131
104,-0.0175368394703,4413,131
105,-0.0175575558096,4414,131
106,-0.0175986979157,4415,131
107,-0.0176394581795,4416,131
108,-0.0176798459142,4417,131
109,-0.0176999010146,4418,131
110,-0.0177595280111,4419,131
111,-0.0177988372743,4420,131
112,-0.0178378038108,4421,131
113,-0.0178764350712,4422,131
114,-0.0179147385061,4423,131
115,-0.0179527197033,4424,131
116,-0.0179903898388,4425,131
117,-0.0180277489126,4426,131
118,-0.0180648081005,4427,131
119,-0.0180832277983,4428,131
120,-0.0181198548526,4429,131
121,-0.0181561950594,4430,131
122,-0.0181922614574,4431,131
123,-0.0182280559093,4432,131
124,-0.0182458534837,4433,131
125,-0.0182988606393,4434,131
126,-0.0183164030313,4435,131
127,-0.0183686576784,4436,131
128,-0.0184031929821,4437,131
129,-0.0184374935925,4438,131
130,-0.0184715632349,4439,131
131,-0.0184885151684,4440,131
132,-0.0185222513974,4441,131
133,-0.0185724496841,4442,131
134,-0.0186056513339,4443,131
135,-0.018622174859,4444,131
136,-0.0186550673097,4445,131
137,-0.0186877641827,4446,131
138,-0.0187202636153,4447,131
139,-0.0187525711954,4448,131
140,-0.0187686551362,4449,131
141,-0.018816627562,4450,131
142,-0.0188483837992,4451,131
143,-0.0188641939312,4452,131
144,-0.0189113616943,4453,131
145,-0.0189425926656,4454,131
146,-0.0189581457525,4455,131
147,-0.0190045516938,4456,131
148,-0.0190352816135,4457,131
149,-0.0190658513457,4458,131
150,-0.0190962608904,4459,131
151,-0.0191114060581,4460,131
152,-0.0191265139729,4461,131
153,-0.0191715992987,4462,131
154,-0.0192014630884,4463,131
155,-0.0192163381726,4464,131
156,-0.0192459709942,4465,131
157,-0.019290138036,4466,131
158,-0.0193193946034,4467,131
159,-0.0193339660764,4468,131
160,-0.019377456978,4469,131
161,-0.0194062627852,4470,131
162,-0.0194349177182,4471,131
163,-0.0194634236395,4472,131
164,-0.0194917805493,4473,131
165,-0.0195199865848,4474,131
166,-0.0195340327919,4475,131
167,-0.0195620115846,4476,131
168,-0.0195898395032,4477,131
169,-0.0196175128222,4478,131
170,-0.0196450315416,4479,131
171,-0.0196723956615,4480,131
172,-0.0196996033192,4481,131
173,-0.0197266507894,4482,131
174,-0.0197535399348,4483,131
175,-0.0197802651674,4484,131
176,-0.0198068264872,4485,131
177,-0.0198332201689,4486,131
178,-0.0198463555425,4487,131
179,-0.0198855046183,4488,131
180,-0.01991138421,4489,131
181,-0.0199242588133,4490,131
182,-0.0199498739094,4491,131
183,-0.0199626144022,4492,131
184,-0.0199879594147,4493,131
185,-0.0200256295502,4494,131
186,-0.0200505070388,4495,131
187,-0.0200751908123,4496,131
188,-0.0200874600559,4497,131
189,-0.0201239660382,4498,131
190,-0.0201360341161,4499,131
191,-0.0201600156724,4500,131
192,-0.0201955959201,4501,131
193,-0.0202190484852,4502,131
194,-0.0202422812581,4503,131
195,-0.0202652923763,4504,131
196,-0.0202767122537,4505,131
197,-0.0202880762517,4506,131
198,-0.0203218199313,4507,131
199,-0.0203440189362,4508,131
200,-0.0203659739345,4509,131
201,-0.0203876849264,4510,131
202,-0.0204091444612,4511,131
203,-0.0204303488135,4512,131
204,-0.0204512923956,4513,131
205,-0.0204616654664,4514,131
206,-0.0204923786223,4515,131
207,-0.0205125119537,4516,131
208,-0.0205323658884,4517,131
209,-0.0205519348383,4518,131
210,-0.0205712132156,4519,131
211,-0.0205807425082,4520,131
212,-0.0205995775759,4521,131
213,-0.0206181127578,4522,131
214,-0.0206272639334,4523,131
215,-0.020654251799,4524,131
216,-0.0206630900502,4525,131
217,-0.0206891205162,4526,131
218,-0.0207060649991,4527,131
219,-0.020714411512,4528,131
220,-0.0207389462739,4529,131
221,-0.0207548737526,4530,131
222,-0.0207627061754,4531,131
223,-0.0207781083882,4532,131
224,-0.0208005420864,4533,131
225,-0.0208150409162,4534,131
226,-0.0208221524954,4535,131
227,-0.0208360943943,4536,131
228,-0.0208496581763,4537,131
229,-0.0208628363907,4538,131
230,-0.0208756253123,4539,131
231,-0.0208880193532,4540,131
232,-0.020894067362,4541,131
233,-0.020911604166,4542,131
234,-0.0209227837622,4543,131
235,-0.0209335498512,4544,131
236,-0.0209438949823,4545,131
237,-0.0209538154304,4546,131
238,-0.0209633037448,4547,131
239,-0.0209723562002,4548,131
240,-0.020980970934,4549,131
241,-0.0209851115942,4550,131
242,-0.0209891404957,4551,131
243,-0.0210005491972,4552,131
244,-0.0210075844079,4553,131
245,-0.0210109297186,4554,131
246,-0.0210202652961,4555,131
247,-0.0210259016603,4556,131
248,-0.0210285410285,4557,131
249,-0.021033462137,4558,131
250,-0.0210399385542,4559,131
251,-0.021041855216,4560,131
252,-0.021045319736,4561,131
253,-0.0210482887924,4562,131
254,-0.0210507586598,4563,131
255,-0.0210535209626,4564,131
256,-0.0210541896522,4565,131
257,-0.0210547298193,4566,131
258,-0.0210555810481,4567,131
259,-0.021055502817,4568,131
260,-0.0210549030453,4569,131
261,-0.0210544075817,4570,131
262,-0.0210521314293,4571,131
263,-0.0210499521345,4572,131
264,-0.0210472401232,4573,131
265,-0.02104399167,4574,131
266,-0.0210402049124,4575,131
267,-0.0210358779877,4576,131
268,-0.0210310071707,4577,131
269,-0.0210283678025,4578,131
270,-0.0210226774216,4579,131
271,-0.0210164375603,4580,131
272,-0.0210096463561,4581,131
273,-0.0210023038089,4582,131
274,-0.0209944061935,4583,131
275,-0.0209859535098,4584,131
276,-0.0209815185517,4585,131
277,-0.0209673717618,4586,131
278,-0.0209572408348,4587,131
279,-0.0209465511143,4588,131
280,-0.020935298875,4589,131
281,-0.0209294632077,4590,131
282,-0.0209173671901,4591,131
283,-0.0208981689066,4592,131
284,-0.0208846665919,4593,131
285,-0.0208705998957,4594,131
286,-0.0208559706807,4595,131
287,-0.0208484455943,4596,131
288,-0.0208329707384,4597,131
289,-0.0208250228316,4598,131
290,-0.0208003371954,4599,131
291,-0.0207831785083,4600,131
292,-0.020765459165,4601,131
293,-0.0207471810281,4602,131
294,-0.0207378342748,4603,131
295,-0.020708957687,4604,131
296,-0.0206890143454,4605,131
297,-0.0206788349897,4606,131
298,-0.0206474754959,4607,131
299,-0.0206258837134,4608,131
300,-0.0206037443131,4609,131
301,-0.0205810628831,4610,131
302,-0.0205695200711,4611,131
303,-0.0205578412861,4612,131
304,-0.0205220002681,4613,131
305,-0.0204974412918,4614,131
306,-0.020484963432,4615,131
307,-0.0204467382282,4616,131
308,-0.0204206015915,4617,131
309,-0.0203939471394,4618,131
310,-0.0203667767346,4619,131
311,-0.020339095965,4620,131
312,-0.0203109104186,4621,131
313,-0.0202966295183,4622,131
314,-0.0202676914632,4623,131
315,-0.020223358646,4624,131
316,-0.0201931949705,4625,131
317,-0.0201779305935,4626,131
318,-0.0201470442116,4627,131
319,-0.0201314240694,4628,131
320,-0.0200998298824,4629,131
321,-0.0200515668839,4630,131
322,-0.0200352501124,4631,131
323,-0.0200022757053,4632,131
324,-0.0199519768357,4633,131
325,-0.0199178941548,4634,131
326,-0.0198833812028,4635,131
327,-0.0198659654707,4636,131
328,-0.0198130905628,4637,131
329,-0.0197773240507,4638,131
330,-0.0197411533445,4639,131
331,-0.0197045840323,4640,131
332,-0.0196861531585,4641,131
333,-0.019649002701,4642,131
334,-0.0196114741266,4643,131
335,-0.019592570141,4644,131
336,-0.0195544883609,4645,131
337,-0.0194966960698,4646,131
338,-0.0194772575051,4647,131
339,-0.0194184333086,4648,131
340,-0.0193986594677,4649,131
341,-0.0193588677794,4650,131
342,-0.0192985888571,4651,131
343,-0.0192580204457,4652,131
344,-0.0192376244813,4653,131
345,-0.0191760063171,4654,131
346,-0.0191345829517,4655,131
347,-0.0191137697548,4656,131
348,-0.0190928895026,4657,131
349,-0.0190298706293,4658,131
350,-0.0189875513315,4659,131
351,-0.0189663041383,4660,131
352,-0.0189236383885,4661,131
353,-0.0188592281193,4662,131
354,-0.0188376549631,4663,131
355,-0.0187943596393,4664,131
356,-0.0187290608883,4665,131
357,-0.0186853092164,4666,131
358,-0.0186413936317,4667,131
359,-0.0185973253101,4668,131
360,-0.0185531135648,4669,131
361,-0.0185087695718,4670,131
362,-0.0184865500778,4671,131
363,-0.0184420235455,4672,131
364,-0.0183973927051,4673,131
365,-0.0183526631445,4674,131
366,-0.0183078497648,4675,131
367,-0.018262963742,4676,131
368,-0.0182180143893,4677,131
369,-0.0181730091572,4678,131
370,-0.0181504897773,4679,131
371,-0.0180828869343,4680,131
372,-0.0180377922952,4681,131
373,-0.0179926883429,4682,131
374,-0.0179475862533,4683,131
375,-0.0179024972022,4684,131
376,-0.0178799610585,4685,131
377,-0.0178349129856,4686,131
378,-0.0177899058908,4687,131
379,-0.0177674200386,4688,131
380,-0.0177000574768,4689,131
381,-0.0176552366465,4690,131
382,-0.0176105033606,4691,131
383,-0.0175658650696,4692,131
384,-0.0175213329494,4693,131
385,-0.0174991115928,4694,131
386,-0.0174547601491,4695,131
387,-0.0173884890974,4696,131
388,-0.017366470769,4697,131
389,-0.0173006597906,4698,131
390,-0.017256995663,4699,131
391,-0.0172135159373,4700,131
392,-0.0171702299267,4701,131
393,-0.0171486623585,4702,131
394,-0.0171271469444,4703,131
395,-0.0170842800289,4704,131
396,-0.0170204024762,4705,131
397,-0.0169992279261,4706,131
398,-0.0169570650905,4707,131
399,-0.0168943069875,4708,131
400,-0.0168735198677,4709,131
401,-0.0168115813285,4710,131
402,-0.0167910773307,4711,131
403,-0.0167300179601,4712,131
404,-0.0166896954179,4713,131
405,-0.0166696533561,4714,131
406,-0.0166100207716,4715,131
407,-0.0165706854314,4716,131
408,-0.0165511462837,4717,131
409,-0.0165316965431,4718,131
410,-0.0164738856256,4719,131
411,-0.0164358057082,4720,131
412,-0.0163981057703,4721,131
413,-0.0163607914001,4722,131
414,-0.0163238737732,4723,131
415,-0.016305565834,4724,131
416,-0.0162512566894,4725,131
417,-0.0162333622575,4726,131
418,-0.0161803197116,4727,131
419,-0.0161628555506,4728,131
420,-0.0161111224443,4729,131
421,-0.0160941015929,4730,131
422,-0.0160437244922,4731,131
423,-0.0160271618515,4732,131
424,-0.0159943904728,4733,131
425,-0.0159620922059,4734,131
426,-0.015946123749,4735,131
427,-0.0159145500511,4736,131
428,-0.0158681068569,4737,131
429,-0.0158377643675,4738,131
430,-0.0158079266548,4739,131
431,-0.0157785955817,4740,131
432,-0.0157641246915,4741,131
433,-0.0157355703413,4742,131
434,-0.0156937204301,4743,131
435,-0.0156800337136,4744,131
436,-0.0156397726387,4745,131
437,-0.0156136024743,4746,131
438,-0.0156007204205,4747,131
439,-0.0155879743397,4748,131
440,-0.0155505565926,4749,131
441,-0.0155262975022,4750,131
442,-0.0155143765733,4751,131
443,-0.0154794454575,4752,131
444,-0.0154568562284,4753,131
445,-0.0154457716271,4754,131
446,-0.0154133643955,4755,131
447,-0.0153924664482,4756,131
448,-0.0153822302818,4757,131
449,-0.0153523758054,4758,131
450,-0.0153331859037,4759,131
451,-0.0153145659715,4760,131
452,-0.0152965188026,4761,131
453,-0.0152877094224,4762,131
454,-0.015270520933,4763,131
455,-0.0152539052069,4764,131
456,-0.0152458129451,4765,131
457,-0.0152223929763,4766,131
458,-0.0152148725465,4767,131
459,-0.0151931680739,4768,131
460,-0.0151794115081,4769,131
461,-0.0151662239805,4770,131
462,-0.0151536045596,4771,131
463,-0.0151415504515,4772,131
464,-0.0151300607249,4773,131
465,-0.0151245249435,4774,131
466,-0.0151138743386,4775,131
467,-0.0150989433751,4776,131
468,-0.01509424299,4777,131
469,-0.0150852557272,4778,131
470,-0.0150768179446,4779,131
471,-0.0150689240545,4780,131
472,-0.0150651801378,4781,131
473,-0.0150547549129,4782,131
474,-0.0150515465066,4783,131
475,-0.0150427166373,4784,131
476,-0.015037484467,4785,131
477,-0.0150350639597,4786,131
478,-0.0150285726413,4787,131
479,-0.0150248808786,4788,131
480,-0.0150216920301,4789,131
481,-0.0150189995766,4790,131
482,-0.0150167969987,4791,131
483,-0.0150158777833,4792,131
484,-0.0150143988431,4793,131
485,-0.0150138381869,4794,131
486,-0.0150130689144,4795,131
487,-0.0150127829984,4796,131
488,-0.0150131620467,4797,131
489,-0.0150135187432,4798,131
490,-0.0150152510032,4799,131
491,-0.0150169469416,4800,131
492,-0.0150190666318,4801,131
493,-0.0150216026232,4802,131
494,-0.0150245446712,4803,131
495,-0.0150278862566,4804,131
496,-0.0150316180661,4805,131
497,-0.0150357326493,4806,131
498,-0.0150379305705,4807,131
499,-0.0150426011533,4808,131
500,-0.0150476312265,4809,131
501,-0.015053011477,4810,131
502,-0.0150558305904,4811,131
503,-0.0150647871196,4812,131
504,-0.0150679359213,4813,131
505,-0.0150778517127,4814,131
506,-0.0150848431513,4815,131
507,-0.0150884492323,4816,131
508,-0.015099694021,4817,131
509,-0.0151075329632,4818,131
510,-0.0151115516201,4819,131
511,-0.0151239885017,4820,131
512,-0.0151325836778,4821,131
513,-0.0151369683444,4822,131
514,-0.0151459071785,4823,131
515,-0.0151504585519,4824,131
516,-0.01516442094,4825,131
517,-0.015173974447,4826,131
518,-0.0151837104931,4827,131
519,-0.0151886446401,4828,131
520,-0.0152036901563,4829,131
521,-0.0152139114216,4830,131
522,-0.0152242733166,4831,131
523,-0.0152347628027,4832,131
524,-0.0152400536463,4833,131
525,-0.0152560872957,4834,131
526,-0.0152668980882,4835,131
527,-0.0152777945623,4836,131
528,-0.0152887646109,4837,131
529,-0.0152942743152,4838,131
530,-0.0152997989208,4839,131
531,-0.0153108844534,4840,131
532,-0.0153275849298,4841,131
533,-0.0153331654146,4842,131
534,-0.0153499310836,4843,131
535,-0.0153555227444,4844,131
536,-0.015372287482,4845,131
537,-0.0153834437951,4846,131
538,-0.0153890112415,4847,131
539,-0.0154056530446,4848,131
540,-0.0154166845605,4849,131
541,-0.0154276546091,4850,131
542,-0.0154385510832,4851,131
543,-0.0154439685866,4852,131
544,-0.0154547365382,4853,131
545,-0.015465403907,4854,131
546,-0.015475962311,4855,131
547,-0.0154863996431,4856,131
548,-0.0154967065901,4857,131
549,-0.015506871976,4858,131
550,-0.0155168874189,4859,131
551,-0.0155218355358,4860,131
552,-0.0155316069722,4861,131
553,-0.0155459297821,4862,131
554,-0.0155552420765,4863,131
555,-0.0155643532053,4864,131
556,-0.0155732557178,4865,131
557,-0.0155776254833,4866,131
558,-0.0155903929844,4867,131
559,-0.015594531782,4868,131
560,-0.0156026259065,4869,131
561,-0.0156104685739,4870,131
562,-0.0156180504709,4871,131
563,-0.0156217413023,4872,131
564,-0.0156323965639,4873,131
565,-0.0156391449273,4874,131
566,-0.0156424082816,4875,131
567,-0.0156517475843,4876,131
568,-0.0156575832516,4877,131
569,-0.0156630985439,4878,131
570,-0.0156657341868,4879,131
571,-0.0156707540154,4880,131
572,-0.0156754348427,4881,131
573,-0.0156817995012,4882,131
574,-0.0156837441027,4883,131
575,-0.015687359497,4884,131
576,-0.015689028427,4885,131
577,-0.0156934708357,4886,131
578,-0.0156959537417,4887,131
579,-0.0156980473548,4888,131
580,-0.0156997423619,4889,131
581,-0.015701033175,4890,131
582,-0.0157019086182,4891,131
583,-0.0157023705542,4892,131
584,-0.0157024059445,4893,131
585,-0.0157020129263,4894,131
586,-0.0157011840492,4895,131
587,-0.0157006047666,4896,131
588,-0.0156981926411,4897,131
589,-0.0156971625984,4898,131
590,-0.0156960189342,4899,131
591,-0.0156933870167,4900,131
592,-0.0156902913004,4901,131
593,-0.0156847629696,4902,131
594,-0.0156804807484,4903,131
595,-0.0156781598926,4904,131
596,-0.0156731531024,4905,131
597,-0.0156676582992,4906,131
598,-0.0156616698951,4907,131
599,-0.015651749447,4908,131
600,-0.01564450562,4909,131
601,-0.0156406927854,4910,131
602,-0.0156284850091,4911,131
603,-0.0156197007746,4912,131
604,-0.0156151130795,4913,131
605,-0.0156055456027,4914,131
606,-0.0156005639583,4915,131
607,-0.015590203926,4916,131
608,-0.0155793121085,4917,131
609,-0.0155678838491,4918,131
610,-0.0155497286469,4919,131
611,-0.0155369471759,4920,131
612,-0.0155236171558,4921,131
613,-0.0155097367242,4922,131
614,-0.0155025897548,4923,131
615,-0.0154803162441,4924,131
616,-0.0154726123437,4925,131
617,-0.0154486596584,4926,131
618,-0.0154403932393,4927,131
619,-0.0154234357178,4928,131
620,-0.0154059110209,4929,131
621,-0.015387817286,4930,131
622,-0.015378555283,4931,131
623,-0.0153499078006,4932,131
624,-0.0153400702402,4933,131
625,-0.0153096895665,4934,131
626,-0.0152887096629,4935,131
627,-0.01526714582,4936,131
628,-0.0152449961752,4937,131
629,-0.0152222579345,4938,131
630,-0.0151989301667,4939,131
631,-0.015175011009,4940,131
632,-0.0151628293097,4941,131
633,-0.0151253920048,4942,131
634,-0.0151126151904,4943,131
635,-0.0150866126642,4944,131
636,-0.015073386021,4945,131
637,-0.0150328055024,4946,131
638,-0.0150049990043,4947,131
639,-0.0149908689782,4948,131
640,-0.0149621544406,4949,131
641,-0.0149179436266,4950,131
642,-0.0149029018357,4951,131
643,-0.0148723619059,4952,131
644,-0.0148254036903,4953,131
645,-0.0148094436154,4954,131
646,-0.0147770615295,4955,131
647,-0.0147273326293,4956,131
648,-0.0146934064105,4957,131
649,-0.0146588580683,4958,131
650,-0.0146413510665,4959,131
651,-0.0146058686078,4960,131
652,-0.0145697612315,4961,131
653,-0.0145330261439,4962,131
654,-0.0144956624135,4963,131
655,-0.0144576691091,4964,131
656,-0.0144190434366,4965,131
657,-0.0143797844648,4966,131
658,-0.0143398893997,4967,131
659,-0.0142993573099,4968,131
660,-0.0142788514495,4969,131
661,-0.0142163727432,4970,131
662,-0.014173916541,4971,131
663,-0.0141524458304,4972,131
664,-0.0141090210527,4973,131
665,-0.0140649471432,4974,131
666,-0.0140202241018,4975,131
667,-0.013997618109,4976,131
668,-0.013951914385,4977,131
669,-0.0138821303844,4978,131
670,-0.01383478567,4979,131
671,-0.0137867797166,4980,131
