,amplitude,tstep,vfp
0,0.0100970780477,1573,183
1,0.0102588608861,1574,183
2,0.0107566369697,1575,183
3,0.011099005118,1576,183
4,0.0112733906135,1577,183
5,0.0118095465004,1578,183
6,0.0121779702604,1579,183
7,0.0123655255884,1580,183
8,0.012941736728,1581,183
9,0.0133373159915,1582,183
10,0.0137421824038,1583,183
11,0.0141564486548,1584,183
12,0.0143671408296,1585,183
13,0.014795714058,1586,183
14,0.0152339618653,1587,183
15,0.015456745401,1588,183
16,0.0159096941352,1589,183
17,0.0166077595204,1590,183
18,0.0170857049525,1591,183
19,0.0175738111138,1592,183
20,0.0180721618235,1593,183
21,0.0183252058923,1594,183
22,0.0188390798867,1595,183
23,0.0193633921444,1596,183
24,0.0198982227594,1597,183
25,0.0207203216851,1598,183
26,0.0212817117572,1599,183
27,0.0215664245188,1600,183
28,0.0221439152956,1601,183
29,0.0227321963757,1602,183
30,0.0233313031495,1603,183
31,0.0239412710071,1604,183
32,0.0245621241629,1605,183
33,0.0251938849688,1606,183
34,0.0258365590125,1607,183
35,0.0264901537448,1608,183
36,0.0271546710283,1609,183
37,0.0274910219014,1610,183
38,0.0285164173692,1611,183
39,0.028863651678,1612,183
40,0.0299216210842,1613,183
41,0.0306404307485,1614,183
42,0.0310038663447,1615,183
43,0.0317387655377,1616,183
44,0.0324843116105,1617,183
45,0.033240430057,1618,183
46,0.034007050097,1619,183
47,0.0347840636969,1620,183
48,0.0355713814497,1621,183
49,0.0363688804209,1622,183
50,0.0367714092135,1623,183
51,0.0379939414561,1624,183
52,0.0384063720703,1625,183
53,0.0396581552923,1626,183
54,0.040504552424,1627,183
55,0.0413602516055,1628,183
56,0.0417915321887,1629,183
57,0.0430987812579,1630,183
58,0.0435389205813,1631,183
59,0.0444256179035,1632,183
60,0.0453206822276,1633,183
61,0.045771278441,1634,183
62,0.0471349470317,1635,183
63,0.0475933589041,1636,183
64,0.0489796809852,1637,183
65,0.0494453646243,1638,183
66,0.0508526228368,1639,183
67,0.0513249859214,1640,183
68,0.0522743873298,1641,183
69,0.0537095405161,1642,183
70,0.0546731874347,1643,183
71,0.0556419044733,1644,183
72,0.056615319103,1645,183
73,0.0571036748588,1646,183
74,0.0580834187567,1647,183
75,0.0590668655932,1648,183
76,0.0595598518848,1649,183
77,0.0610432066023,1650,183
78,0.0620352253318,1651,183
79,0.0630291998386,1652,183
80,0.0635267794132,1653,183
81,0.0650211572647,1654,183
82,0.0660181641579,1655,183
83,0.0670151785016,1656,183
84,0.0680116787553,1657,183
85,0.0685095787048,1658,183
86,0.0700010508299,1659,183
87,0.0704972371459,1660,183
88,0.071487724781,1661,183
89,0.0724752470851,1662,183
90,0.0734592229128,1663,183
91,0.0744390413165,1664,183
92,0.075414121151,1665,183
93,0.0758996829391,1666,183
94,0.0773475468159,1667,183
95,0.0783046483994,1668,183
96,0.0792544931173,1669,183
97,0.0801964178681,1670,183
98,0.0811297819018,1671,183
99,0.0820539072156,1672,183
100,0.0829681158066,1673,183
101,0.0834212824702,1674,183
102,0.0847640261054,1675,183
103,0.0852057188749,1676,183
104,0.0856443271041,1677,183
105,0.0869407579303,1678,183
106,0.0877879783511,1679,183
107,0.0886207073927,1680,183
108,0.0894382148981,1681,183
109,0.0902397558093,1682,183
110,0.090634316206,1683,183
111,0.0917920470238,1684,183
112,0.0925413072109,1685,183
113,0.0932716429234,1686,183
114,0.0939823165536,1687,183
115,0.0943300500512,1688,183
116,0.0953416675329,1689,183
117,0.0959888473153,1690,183
118,0.0963039696217,1691,183
119,0.0969168543816,1692,183
120,0.0975059494376,1693,183
121,0.0977913290262,1694,183
122,0.0986097455025,1695,183
123,0.098869651556,1696,183
124,0.0996093973517,1697,183
125,0.100068330765,1698,183
126,0.100499004126,1699,183
127,0.100703522563,1700,183
128,0.101272709668,1701,183
129,0.101614311337,1702,183
130,0.101924777031,1703,183
131,0.102068133652,1704,183
132,0.102449581027,1705,183
133,0.102560251951,1706,183
134,0.102756343782,1707,183
135,0.102841608226,1708,183
136,0.103045277297,1709,183
137,0.103095524013,1710,183
138,0.103192225099,1711,183
139,0.103210881352,1712,183
140,0.103192158043,1713,183
141,0.103135488927,1714,183
142,0.103040285408,1715,183
143,0.102978058159,1716,183
144,0.10273206234,1717,183
145,0.102517947555,1718,183
146,0.102395668626,1719,183
147,0.101967178285,1720,183
148,0.101803608239,1721,183
149,0.101629555225,1722,183
150,0.101044028997,1723,183
151,0.100600324571,1724,183
152,0.100113458931,1725,183
153,0.0998537242413,1726,183
154,0.0990087538958,1727,183
155,0.0983902141452,1728,183
156,0.0977271050215,1729,183
157,0.0973787531257,1730,183
158,0.0966482833028,1731,183
159,0.095467671752,1732,183
160,0.0946236774325,1733,183
161,0.0937339067459,1734,183
162,0.0932718068361,1735,183
163,0.0923131033778,1736,183
164,0.091308273375,1737,183
165,0.0907885283232,1738,183
166,0.0891598761082,1739,183
167,0.0880161970854,1740,183
168,0.0874269679189,1741,183
169,0.0855898112059,1742,183
170,0.0843071714044,1743,183
171,0.082978323102,1744,183
172,0.0822966098785,1745,183
173,0.0801824703813,1746,183
174,0.0787157565355,1747,183
175,0.077203437686,1748,183
176,0.0764302536845,1749,183
177,0.0740429461002,1750,183
178,0.072395324707,1751,183
179,0.0715548023582,1752,183
180,0.0707032009959,1753,183
181,0.0680823475122,1754,183
182,0.0662805885077,1755,183
183,0.0644356831908,1756,183
184,0.0625481233001,1757,183
185,0.0606184005737,1758,183
186,0.0586470291018,1759,183
187,0.0576458983123,1760,183
188,0.0556131228805,1761,183
189,0.0524888113141,1762,183
190,0.0503567792475,1763,183
191,0.0481862202287,1764,183
192,0.0459778308868,1765,183
193,0.0437323786318,1766,183
194,0.0425959900022,1767,183
195,0.0402963906527,1768,183
196,0.0379617288709,1769,183
197,0.0355928353965,1770,183
198,0.033190600574,1771,183
199,0.0307559352368,1772,183
200,0.0282897725701,1773,183
201,0.0270451828837,1774,183
202,0.0232668612152,1775,183
203,0.0219929944724,1776,183
204,0.0181299280375,1777,183
205,0.0155213437974,1778,183
206,0.0128874722868,1779,183
207,0.010229440406,1780,183
208,-0.0103559829295,1788,183
209,-0.0117616746575,1789,183
210,-0.0145826386288,1790,183
211,-0.0188355166465,1791,183
212,-0.0216830670834,1792,183
213,-0.0231100153178,1793,183
214,-0.0259693786502,1794,183
215,-0.0302694607526,1795,183
216,-0.0317050516605,1796,183
217,-0.0345785059035,1797,183
218,-0.0374537780881,1798,183
219,-0.0388916395605,1799,183
220,-0.0432039387524,1800,183
221,-0.0446403250098,1801,183
222,-0.0475104115903,1802,183
223,-0.0518060438335,1803,183
224,-0.0546612814069,1804,183
225,-0.057507943362,1805,183
226,-0.0603445209563,1806,183
227,-0.0617585591972,1807,183
228,-0.0659813657403,1808,183
229,-0.0687785893679,1809,183
230,-0.0715596675873,1810,183
231,-0.0729436725378,1811,183
232,-0.0756976678967,1812,183
233,-0.078431725502,1813,183
234,-0.0811443254352,1814,183
235,-0.0824921056628,1815,183
236,-0.0864990949631,1816,183
237,-0.089138276875,1817,183
238,-0.0917499884963,1818,183
239,-0.0943327695131,1819,183
240,-0.0968851149082,1820,183
241,-0.0994055941701,1821,183
242,-0.101892739534,1822,183
243,-0.104345105588,1823,183
244,-0.10555780679,1824,183
245,-0.107955351472,1825,183
246,-0.11147941649,1826,183
247,-0.112634144723,1827,183
248,-0.114912621677,1828,183
249,-0.117148682475,1829,183
250,-0.118250392377,1830,183
251,-0.12148822099,1831,183
252,-0.122544534504,1832,183
253,-0.124621734023,1833,183
254,-0.126650676131,1834,183
255,-0.12863008678,1835,183
256,-0.131503775716,1836,183
257,-0.133354201913,1837,183
258,-0.135150924325,1838,183
259,-0.136892899871,1839,183
260,-0.138579010963,1840,183
261,-0.140208169818,1841,183
262,-0.141001060605,1842,183
263,-0.141779348254,1843,183
264,-0.144025206566,1844,183
265,-0.145447060466,1845,183
266,-0.14680750668,1846,183
267,-0.147464454174,1847,183
268,-0.149340704083,1848,183
269,-0.150511726737,1849,183
270,-0.151617944241,1850,183
271,-0.152658611536,1851,183
272,-0.153632968664,1852,183
273,-0.154540345073,1853,183
274,-0.15538007021,1854,183
275,-0.156151533127,1855,183
276,-0.156854122877,1856,183
277,-0.157179430127,1857,183
278,-0.15777772665,1858,183
279,-0.158050581813,1859,183
280,-0.158543482423,1860,183
281,-0.159149885178,1861,183
282,-0.159464970231,1862,183
283,-0.159708321095,1863,183
284,-0.159879639745,1864,183
285,-0.159978657961,1865,183
286,-0.160005182028,1866,183
287,-0.159991204739,1867,183
288,-0.159908622503,1868,183
289,-0.159753203392,1869,183
290,-0.159524828196,1870,183
291,-0.159045413136,1871,183
292,-0.158634588122,1872,183
293,-0.158401831985,1873,183
294,-0.158150866628,1874,183
295,-0.157288819551,1875,183
296,-0.156623408198,1876,183
297,-0.155885666609,1877,183
298,-0.155075758696,1878,183
299,-0.154194056988,1879,183
300,-0.153726369143,1880,183
301,-0.152216523886,1881,183
302,-0.151121467352,1882,183
303,-0.149956122041,1883,183
304,-0.149347260594,1884,183
305,-0.148077428341,1885,183
306,-0.146043464541,1886,183
307,-0.144602224231,1887,183
308,-0.1438562572,1888,183
309,-0.142314001918,1889,183
310,-0.141517922282,1890,183
311,-0.139030814171,1891,183
312,-0.137291327119,1892,183
313,-0.135487660766,1893,183
314,-0.133620634675,1894,183
315,-0.131691113114,1895,183
316,-0.129699975252,1896,183
317,-0.127648189664,1897,183
318,-0.12553666532,1898,183
319,-0.123366422951,1899,183
320,-0.122259609401,1900,183
321,-0.11885394156,1901,183
322,-0.117690742016,1902,183
323,-0.115323267877,1903,183
324,-0.112901926041,1904,183
325,-0.110427856445,1905,183
326,-0.107902273536,1906,183
327,-0.105326376855,1907,183
328,-0.104019939899,1908,183
329,-0.100028581917,1909,183
330,-0.0986746549606,1910,183
331,-0.094544686377,1911,183
332,-0.0917362347245,1912,183
333,-0.0888852477074,1913,183
334,-0.0874442309141,1914,183
335,-0.0830611586571,1915,183
336,-0.0815807282925,1916,183
337,-0.0770836621523,1917,183
338,-0.0755666717887,1918,183
339,-0.0725068002939,1919,183
340,-0.0709642842412,1920,183
341,-0.0662887245417,1921,183
342,-0.0647148042917,1922,183
343,-0.0599495433271,1923,183
344,-0.0583472587168,1924,183
345,-0.0551230236888,1925,183
346,-0.0502404384315,1926,183
347,-0.0486013665795,1927,183
348,-0.0436522476375,1928,183
349,-0.0403282269835,1929,183
350,-0.0386594347656,1930,183
351,-0.0353092513978,1931,183
352,-0.0319436229765,1932,183
353,-0.0285641457886,1933,183
354,-0.0251724291593,1934,183
355,-0.0217700768262,1935,183
356,-0.0200654156506,1936,183
357,-0.0149399032816,1937,183
358,-0.0115153016523,1938,183
359,0.0124845653772,1945,183
360,0.0158979035914,1946,183
361,0.0193026904017,1947,183
362,0.0210013873875,1948,183
363,0.0243904143572,1949,183
364,0.0260803569108,1950,183
365,0.031129591167,1951,183
366,0.0344766676426,1952,183
367,0.0361439175904,1953,183
368,0.0411182418466,1954,183
369,0.0444097332656,1955,183
370,0.0476797297597,1956,183
371,0.0493062064052,1957,183
372,0.0525412224233,1958,183
373,0.055751118809,1959,183
374,0.0605157613754,1960,183
375,0.0636566802859,1961,183
376,0.066767603159,1962,183
377,0.068311393261,1963,183
378,0.071374759078,1964,183
379,0.0744047760963,1965,183
380,0.0774001255631,1966,183
381,0.0803595557809,1967,183
382,0.0818253979087,1968,183
383,0.0847285613418,1969,183
384,0.0875926688313,1970,183
385,0.090416520834,1971,183
386,0.0931989476085,1972,183
387,0.095938809216,1973,183
388,0.0999662876129,1974,183
389,0.102594800293,1975,183
390,0.105176910758,1976,183
391,0.106450229883,1977,183
392,0.108960770071,1978,183
393,0.111422345042,1979,183
394,0.113834001124,1980,183
395,0.116194784641,1981,183
396,0.117355816066,1982,183
397,0.120760120451,1983,183
398,0.121868267655,1984,183
399,0.125111401081,1985,183
400,0.127204731107,1986,183
401,0.129242151976,1987,183
402,0.130239680409,1988,183
403,0.133146345615,1989,183
404,0.135011762381,1990,183
405,0.136818483472,1991,183
406,0.137699663639,1992,183
407,0.139417260885,1993,183
408,0.141074687243,1994,183
409,0.142671465874,1995,183
410,0.144207030535,1996,183
411,0.144951730967,1997,183
412,0.147092759609,1998,183
413,0.148442059755,1999,183
414,0.1497284621,2000,183
415,0.150951653719,2001,183
416,0.152111291885,2002,183
417,0.152667179704,2003,183
418,0.154238805175,2004,183
419,0.155206203461,2005,183
420,0.156109109521,2006,183
421,0.156947359443,2007,183
422,0.157720848918,2008,183
423,0.158083245158,2009,183
424,0.158429443836,2010,183
425,0.159073099494,2011,183
426,0.159916773438,2012,183
427,0.160398006439,2013,183
428,0.160814315081,2014,183
429,0.16116578877,2015,183
430,0.161452516913,2016,183
431,0.161571636796,2017,183
432,0.161832273006,2018,183
433,0.161925688386,2019,183
434,0.161955058575,2020,183
435,0.161920636892,2021,183
436,0.161822721362,2022,183
437,0.161750048399,2023,183
438,0.161557435989,2024,183
439,0.161302149296,2025,183
440,0.160984545946,2026,183
441,0.160605043173,2027,183
442,0.160164088011,2028,183
443,0.159920692444,2029,183
444,0.159388363361,2030,183
445,0.158477008343,2031,183
446,0.157794952393,2032,183
447,0.157053977251,2033,183
448,0.156254649162,2034,183
449,0.155833289027,2035,183
450,0.154947578907,2036,183
451,0.153512760997,2037,183
452,0.152486339211,2038,183
453,0.151952430606,2039,183
454,0.150843665004,2040,183
455,0.149680897593,2041,183
456,0.148464888334,2042,183
457,0.147837162018,2043,183
458,0.145876273513,2044,183
459,0.145197078586,2045,183
460,0.143084228039,2046,183
461,0.141614049673,2047,183
462,0.14009553194,2048,183
463,0.138529628515,2049,183
464,0.136917218566,2050,183
465,0.135259225965,2051,183
466,0.133556559682,2052,183
467,0.132688775659,2053,183
468,0.130920946598,2054,183
469,0.129110872746,2055,183
470,0.128190293908,2056,183
471,0.125368013978,2057,183
472,0.12343724072,2058,183
473,0.121468290687,2059,183
474,0.119462192059,2060,183
475,0.117419987917,2061,183
476,0.115342773497,2062,183
477,0.113231606781,2063,183
478,0.111087590456,2064,183
479,0.108911812305,2065,183
480,0.106705382466,2066,183
481,0.104469388723,2067,183
482,0.102204993367,2068,183
483,0.101062484086,2069,183
484,0.0987575724721,2070,183
485,0.0964270681143,2071,183
486,0.0952525958419,2072,183
487,0.0916939303279,2073,183
488,0.0892935916781,2074,183
489,0.086872279644,2075,183
490,0.0844311639667,2076,183
491,0.0819714292884,2077,183
492,0.0794942304492,2078,183
493,0.0782494470477,2079,183
494,0.0744921341538,2080,183
495,0.0719695910811,2081,183
496,0.069434300065,2082,183
497,0.0681622326374,2083,183
498,0.0656099915504,2084,183
499,0.0643301233649,2085,183
500,0.0604772679508,2086,183
501,0.059189055115,2087,183
502,0.0553146712482,2088,183
503,0.0540204532444,2089,183
504,0.0514287538826,2090,183
505,0.0475352369249,2091,183
506,0.0449372716248,2092,183
507,0.042338822037,2093,183
508,0.0410397723317,2094,183
509,0.0371450595558,2095,183
510,0.0345520302653,2096,183
511,0.0319630727172,2097,183
512,0.0293793138117,2098,183
513,0.028089735657,2099,183
514,0.0255158711225,2100,183
515,0.0229499805719,2101,183
516,0.0216703694314,2102,183
517,0.0191184934229,2103,183
518,0.0153110697865,2104,183
519,0.0127879399806,2105,183
520,0.0102781681344,2106,183
521,-0.0103709073737,2115,183
522,-0.0127033134922,2116,183
523,-0.0150119960308,2117,183
524,-0.0161571558565,2118,183
525,-0.0184285547584,2119,183
526,-0.020673988387,2120,183
527,-0.0228925887495,2121,183
528,-0.0250834990293,2122,183
529,-0.0283161215484,2123,183
530,-0.0304341819137,2124,183
531,-0.0325217023492,2125,183
532,-0.0335537567735,2126,183
533,-0.0355940014124,2127,183
534,-0.0385932810605,2128,183
535,-0.0405510142446,2129,183
536,-0.0415170826018,2130,183
537,-0.0424744971097,2131,183
538,-0.0452940054238,2132,183
539,-0.046215981245,2133,183
540,-0.0489272139966,2134,183
541,-0.0506883449852,2135,183
542,-0.0524116940796,2136,183
543,-0.0540966801345,2137,183
544,-0.0557427443564,2138,183
545,-0.0573493428528,2139,183
546,-0.0589159727097,2140,183
547,-0.0604421310127,2141,183
548,-0.0619273334742,2142,183
549,-0.0626544430852,2143,183
550,-0.0647731199861,2144,183
551,-0.0654582902789,2145,183
552,-0.0667967572808,2146,183
553,-0.0680924057961,2147,183
554,-0.0687240585685,2148,183
555,-0.0705538541079,2149,183
556,-0.0717189908028,2150,183
557,-0.0728400275111,2151,183
558,-0.0733839124441,2152,183
559,-0.0744382888079,2153,183
560,-0.0759358853102,2154,183
561,-0.0768780037761,2155,183
562,-0.0777748823166,2156,183
563,-0.0786263942719,2157,183
564,-0.0790350735188,2158,183
565,-0.0801927149296,2159,183
566,-0.0805557444692,2160,183
567,-0.0812474638224,2161,183
568,-0.0818933770061,2162,183
569,-0.0824934244156,2163,183
570,-0.0830476135015,2164,183
571,-0.0835559368134,2165,183
572,-0.0840184465051,2166,183
573,-0.0844352021813,2167,183
574,-0.0846264362335,2168,183
575,-0.0851317048073,2169,183
576,-0.0852773711085,2170,183
577,-0.08553468436,2171,183
578,-0.0858358442783,2172,183
579,-0.0859803557396,2173,183
580,-0.0860800892115,2174,183
581,-0.0861132368445,2175,183
582,-0.0861462503672,2176,183
583,-0.0861350893974,2177,183
584,-0.0860800370574,2178,183
585,-0.085981413722,2179,183
586,-0.0859158560634,2180,183
587,-0.085654720664,2181,183
588,-0.0854273363948,2182,183
589,-0.0852978080511,2183,183
590,-0.084846444428,2184,183
591,-0.0844937413931,2185,183
592,-0.0841001197696,2186,183
593,-0.0836660265923,2187,183
594,-0.0831919312477,2188,183
595,-0.0829400494695,2189,183
596,-0.0824069082737,2190,183
597,-0.082125775516,2191,183
598,-0.0812249854207,2192,183
599,-0.0805773064494,2193,183
600,-0.0802395269275,2194,183
601,-0.0791713669896,2195,183
602,-0.0784142911434,2196,183
603,-0.077621974051,2197,183
604,-0.0767950341105,2198,183
605,-0.0759341418743,2199,183
606,-0.0750399678946,2200,183
607,-0.0741131752729,2201,183
608,-0.0731544643641,2202,183
609,-0.0721645578742,2203,183
610,-0.071144156158,2204,183
611,-0.0706227421761,2205,183
612,-0.0695579871535,2206,183
613,-0.0684645995498,2207,183
614,-0.0673433467746,2208,183
615,-0.0661950036883,2209,183
616,-0.065610922873,2210,183
617,-0.0638202130795,2211,183
618,-0.0625953525305,2212,183
619,-0.0613466277719,2213,183
620,-0.0607135631144,2214,183
621,-0.0587808378041,2215,183
622,-0.0574654601514,2216,183
623,-0.0568000152707,2217,183
624,-0.055454172194,2218,183
625,-0.053399618715,2219,183
626,-0.0520073287189,2220,183
627,-0.051304731518,2221,183
628,-0.0498871915042,2222,183
629,-0.0484539344907,2223,183
630,-0.0477316901088,2224,183
631,-0.0462765209377,2225,183
632,-0.0440687723458,2226,183
633,-0.0425815843046,2227,183
634,-0.041083175689,2228,183
635,-0.0395744517446,2229,183
636,-0.0380563139915,2230,183
637,-0.0365296900272,2231,183
638,-0.0357634760439,2232,183
639,-0.0334546044469,2233,183
640,-0.0326819457114,2234,183
641,-0.0303564891219,2235,183
642,-0.0295792166144,2236,183
643,-0.0280221793801,2237,183
644,-0.0264625735581,2238,183
645,-0.0249013081193,2239,183
646,-0.0241203363985,2240,183
647,-0.0225582756102,2241,183
648,-0.0202165786177,2242,183
649,-0.0186576787382,2243,183
650,-0.0171016044915,2244,183
651,-0.0155492369086,2245,183
652,-0.014001455158,2246,183
653,-0.0124591309577,2247,183
654,-0.0109231295064,2248,183
655,-0.0101577704772,2249,183
656,0.010125127621,2263,183
657,0.0114587461576,2264,183
658,0.0127730770037,2265,183
659,0.0134227927774,2266,183
660,0.0147069096565,2267,183
661,0.0159700531512,2268,183
662,0.0172115731984,2269,183
663,0.0184308364987,2270,183
664,0.0190319269896,2271,183
665,0.0208001304418,2272,183
666,0.0219489689916,2273,183
667,0.0230731647462,2274,183
668,0.0241721644998,2275,183
669,0.0247120447457,2276,183
670,0.0262924265116,2277,183
671,0.0268059205264,2278,183
672,0.0283056329936,2279,183
673,0.0292708743364,2280,183
674,0.0297429505736,2281,183
675,0.0306657478213,2282,183
676,0.0311163607985,2283,183
677,0.0324244238436,2284,183
678,0.0332594960928,2285,183
679,0.0340645574033,2286,183
680,0.0348392389715,2287,183
681,0.035215087235,2288,183
682,0.0362961627543,2289,183
683,0.0366409085691,2290,183
684,0.0373067520559,2291,183
685,0.0382459200919,2292,183
686,0.0385429486632,2293,183
687,0.039385586977,2294,183
688,0.0399066954851,2295,183
689,0.0401549786329,2296,183
690,0.0406269021332,2297,183
691,0.0410658381879,2298,183
